Time (days),Moon X Position (m),Moon Y Position (m),Moonlet X Position (m),Moonlet Y Position (m),L4 X Position (m),L4 Y Position (m)
0,384000000.0,0.0,768000000.0,0.0,3408080402.0100503,5902968412.561171
1,383999999.9986376,1022.9035909112177,768000000.0,0.0,3408064677.603203,5902977491.023772
2,383999999.99455035,2045.8071818151773,768000000.0,0.0,3408048953.1721725,5902986569.444487
3,383999999.9877383,3068.71077270462,768000000.0,0.0,3408033228.7169576,5902995647.823316
4,383999999.9782014,4091.614363572287,768000000.0,0.0,3408017504.237561,5903004726.160255
5,383999999.96593976,5114.517954410921,768000000.0,0.0,3408001779.733981,5903013804.45531
6,383999999.9509532,6137.421545213263,768000000.0,0.0,3407986055.206219,5903022882.708476
7,383999999.93324184,7160.325135972053,768000000.0,0.0,3407970330.6542735,5903031960.919756
8,383999999.9128057,8183.228726680036,768000000.0,0.0,3407954606.078146,5903041039.089148
9,383999999.88964474,9206.13231732995,768000000.0,0.0,3407938881.477835,5903050117.216652
10,383999999.8637589,10229.03590791454,768000000.0,0.0,3407923156.8533416,5903059195.30227
11,383999999.8351483,11251.939498426545,768000000.0,0.0,3407907432.2046666,5903068273.346
12,383999999.8038128,12274.84308885871,768000000.0,0.0,3407891707.5318093,5903077351.347842
13,383999999.7697525,13297.746679203772,768000000.0,0.0,3407875982.8347707,5903086429.307797
14,383999999.7329674,14320.65026945447,768000000.0,0.0,3407860258.1135488,5903095507.225864
15,383999999.6934575,15343.553859603557,768000000.0,0.0,3407844533.368147,5903104585.102044
16,383999999.65122277,16366.457449643765,768000000.0,0.0,3407828808.598562,5903113662.936336
17,383999999.60626316,17389.361039567837,768000000.0,0.0,3407813083.804796,5903122740.728739
18,383999999.5585788,18412.26462936852,768000000.0,0.0,3407797358.9868474,5903131818.479255
19,383999999.5081696,19435.168219038544,768000000.0,0.0,3407781634.1447177,5903140896.187883
20,383999999.45503557,20458.07180857067,768000000.0,0.0,3407765909.2784085,5903149973.854623
21,383999999.39917666,21480.97539795762,768000000.0,0.0,3407750184.3879166,5903159051.479475
22,383999999.340593,22503.87898719214,768000000.0,0.0,3407734459.4732447,5903168129.062438
23,383999999.27928454,23526.78257626698,768000000.0,0.0,3407718734.5343904,5903177206.603514
24,383999999.2152512,24549.68616517488,768000000.0,0.0,3407703009.5713573,5903186284.102701
25,383999999.148493,25572.589753908574,768000000.0,0.0,3407687284.5841417,5903195361.559999
26,383999999.07901007,26595.49334246081,768000000.0,0.0,3407671559.572747,5903204438.975409
27,383999999.00680226,27618.39693082432,768000000.0,0.0,3407655834.5371704,5903213516.34893
28,383999998.9318697,28641.30051899186,768000000.0,0.0,3407640109.4774137,5903222593.680564
29,383999998.8542122,29664.204106956164,768000000.0,0.0,3407624384.3934774,5903231670.970308
30,383999998.77383,30687.10769470997,768000000.0,0.0,3407608659.2853603,5903240748.218165
31,383999998.6907229,31710.01128224602,768000000.0,0.0,3407592934.1530643,5903249825.424131
32,383999998.604891,32732.914869557066,768000000.0,0.0,3407577208.9965878,5903258902.588211
33,383999998.5163343,33755.818456635854,768000000.0,0.0,3407561483.815932,5903267979.7104
34,383999998.4250527,34778.7220434751,768000000.0,0.0,3407545758.611095,5903277056.790699
35,383999998.33104634,35801.62563006755,768000000.0,0.0,3407530033.38208,5903286133.829111
36,383999998.23431516,36824.52921640597,768000000.0,0.0,3407514308.1288843,5903295210.825634
37,383999998.13485914,37847.4328024831,768000000.0,0.0,3407498582.851509,5903304287.780267
38,383999998.0326783,38870.33638829164,768000000.0,0.0,3407482857.5499563,5903313364.69301
39,383999997.92777264,39893.23997382438,768000000.0,0.0,3407467132.224223,5903322441.563866
40,383999997.82014215,40916.14355907404,768000000.0,0.0,3407451406.874312,5903331518.392832
41,383999997.7097869,41939.04714403335,768000000.0,0.0,3407435681.5002203,5903340595.179907
42,383999997.59670675,42961.95072869508,768000000.0,0.0,3407419956.1019516,5903349671.925094
43,383999997.48090184,43984.85431305195,768000000.0,0.0,3407404230.6795025,5903358748.62839
44,383999997.36237204,45007.75789709671,768000000.0,0.0,3407388505.232877,5903367825.289797
45,383999997.2411174,46030.6614808221,768000000.0,0.0,3407372779.7620707,5903376901.909315
46,383999997.117138,47053.56506422086,768000000.0,0.0,3407357054.267087,5903385978.486943
47,383999996.9904338,48076.468647285736,768000000.0,0.0,3407341328.7479258,5903395055.022682
48,383999996.8610047,49099.37223000946,768000000.0,0.0,3407325603.2045846,5903404131.516531
49,383999996.72885084,50122.27581238479,768000000.0,0.0,3407309877.6370673,5903413207.968489
50,383999996.59397215,51145.17939440444,768000000.0,0.0,3407294152.045371,5903422284.378558
51,383999996.4563686,52168.08297606119,768000000.0,0.0,3407278426.4294987,5903431360.746737
52,383999996.3160403,53190.98655734775,768000000.0,0.0,3407262700.7894464,5903440437.073024
53,383999996.1729871,54213.89013825687,768000000.0,0.0,3407246975.125218,5903449513.357422
54,383999996.02720916,55236.79371878131,768000000.0,0.0,3407231249.436811,5903458589.599931
55,383999995.87870634,56259.69729891379,768000000.0,0.0,3407215523.724227,5903467665.800549
56,383999995.7274787,57282.600878647034,768000000.0,0.0,3407199797.987467,5903476741.959275
57,383999995.5735262,58305.504457973824,768000000.0,0.0,3407184072.2265277,5903485818.076112
58,383999995.41684896,59328.408036886896,768000000.0,0.0,3407168346.441414,5903494894.151058
59,383999995.2574468,60351.31161537897,768000000.0,0.0,3407152620.632121,5903503970.184114
60,383999995.0953199,61374.2151934428,768000000.0,0.0,3407136894.798653,5903513046.175279
61,383999994.9304682,62397.11877107112,768000000.0,0.0,3407121168.941007,5903522122.124554
62,383999994.7628916,63420.02234825667,768000000.0,0.0,3407105443.059186,5903531198.031938
63,383999994.5925902,64442.92592499222,768000000.0,0.0,3407089717.153187,5903540273.897431
64,383999994.41956395,65465.82950127047,768000000.0,0.0,3407073991.223011,5903549349.721033
65,383999994.243813,66488.73307708418,768000000.0,0.0,3407058265.268661,5903558425.502744
66,383999994.0653371,67511.63665242611,768000000.0,0.0,3407042539.290133,5903567501.242564
67,383999993.8841364,68534.54022728899,768000000.0,0.0,3407026813.287431,5903576576.940493
68,383999993.70021087,69557.44380166553,768000000.0,0.0,3407011087.2605515,5903585652.59653
69,383999993.5135606,70580.34737554852,768000000.0,0.0,3406995361.2094975,5903594728.210677
70,383999993.32418543,71603.25094893067,768000000.0,0.0,3406979635.1342664,5903603803.782932
71,383999993.13208544,72626.15452180474,768000000.0,0.0,3406963909.034861,5903612879.313295
72,383999992.9372606,73649.05809416344,768000000.0,0.0,3406948182.911279,5903621954.801769
73,383999992.73971105,74671.96166599955,768000000.0,0.0,3406932456.7635217,5903631030.248351
74,383999992.53943664,75694.86523730581,768000000.0,0.0,3406916730.5915904,5903640105.653041
75,383999992.33643734,76717.76880807492,768000000.0,0.0,3406901004.3954825,5903649181.01584
76,383999992.1307133,77740.67237829966,768000000.0,0.0,3406885278.1752014,5903658256.336744
77,383999991.92226434,78763.57594797277,768000000.0,0.0,3406869551.9307437,5903667331.61576
78,383999991.7110906,79786.47951708698,768000000.0,0.0,3406853825.662112,5903676406.852882
79,383999991.4971921,80809.38308563503,768000000.0,0.0,3406838099.3693056,5903685482.048114
80,383999991.2805687,81832.28665360966,768000000.0,0.0,3406822373.0523252,5903694557.201452
81,383999991.0612205,82855.1902210036,768000000.0,0.0,3406806646.7111692,5903703632.3129
82,383999990.8391475,83878.09378780963,768000000.0,0.0,3406790920.3458385,5903712707.382456
83,383999990.61434966,84900.99735402048,768000000.0,0.0,3406775193.9563355,5903721782.410118
84,383999990.38682705,85923.90091962888,768000000.0,0.0,3406759467.542657,5903730857.395889
85,383999990.15657955,86946.80448462756,768000000.0,0.0,3406743741.1048055,5903739932.339768
86,383999989.92360723,87969.70804900928,768000000.0,0.0,3406728014.642779,5903749007.241755
87,383999989.68791014,88992.61161276676,768000000.0,0.0,3406712288.15658,5903758082.101849
88,383999989.44948816,90015.51517589278,768000000.0,0.0,3406696561.6462054,5903767156.92005
89,383999989.2083414,91038.41873838006,768000000.0,0.0,3406680835.1116595,5903776231.69636
90,383999988.9644698,92061.32230022133,768000000.0,0.0,3406665108.5529385,5903785306.430775
91,383999988.7178734,93084.22586140934,768000000.0,0.0,3406649381.970044,5903794381.123301
92,383999988.4685522,94107.12942193686,768000000.0,0.0,3406633655.362978,5903803455.773931
93,383999988.2165061,95130.03298179657,768000000.0,0.0,3406617928.731737,5903812530.382669
94,383999987.9617352,96152.93654098129,768000000.0,0.0,3406602202.076325,5903821604.949515
95,383999987.7042395,97175.84009948368,768000000.0,0.0,3406586475.3967385,5903830679.474467
96,383999987.444019,98198.74365729655,768000000.0,0.0,3406570748.6929803,5903839753.957527
97,383999987.18107367,99221.64721441259,768000000.0,0.0,3406555021.965049,5903848828.398695
98,383999986.9154035,100244.55077082459,768000000.0,0.0,3406539295.212945,5903857902.797968
99,383999986.6470085,101267.45432652524,768000000.0,0.0,3406523568.4366684,5903866977.155349
100,383999986.37588865,102290.3578815073,768000000.0,0.0,3406507841.6362195,5903876051.470837
101,383999986.10204405,103313.26143576353,768000000.0,0.0,3406492114.8115993,5903885125.744431
102,383999985.8254746,104336.16498928667,768000000.0,0.0,3406476387.9628057,5903894199.976132
103,383999985.5461803,105359.06854206944,768000000.0,0.0,3406460661.0898414,5903903274.165939
104,383999985.2641612,106381.97209410463,768000000.0,0.0,3406444934.192704,5903912348.313852
105,383999984.97941726,107404.87564538488,768000000.0,0.0,3406429207.271396,5903921422.419872
106,383999984.69194853,108427.77919590304,768000000.0,0.0,3406413480.3259153,5903930496.484001
107,383999984.401755,109450.68274565178,768000000.0,0.0,3406397753.3562646,5903939570.506233
108,383999984.10883653,110473.58629462392,768000000.0,0.0,3406382026.3624406,5903948644.486573
109,383999983.8131934,111496.4898428121,768000000.0,0.0,3406366299.344445,5903957718.425019
110,383999983.5148253,112519.39339020917,768000000.0,0.0,3406350572.30228,5903966792.32157
111,383999983.2137324,113542.29693680776,768000000.0,0.0,3406334845.235943,5903975866.1762295
112,383999982.9099148,114565.20048260066,768000000.0,0.0,3406319118.145436,5903984939.988993
113,383999982.6033723,115588.10402758064,768000000.0,0.0,3406303391.030757,5903994013.759863
114,383999982.294105,116611.00757174043,768000000.0,0.0,3406287663.8919077,5904003087.488838
115,383999981.98211277,117633.91111507277,768000000.0,0.0,3406271936.728887,5904012161.1759205
116,383999981.66739583,118656.81465757037,768000000.0,0.0,3406256209.5416975,5904021234.821108
117,383999981.34995407,119679.718199226,768000000.0,0.0,3406240482.3303356,5904030308.424402
118,383999981.0297874,120702.6217400324,768000000.0,0.0,3406224755.0948057,5904039381.985801
119,383999980.706896,121725.52527998228,768000000.0,0.0,3406209027.8351026,5904048455.505304
120,383999980.38127977,122748.42881906845,768000000.0,0.0,3406193300.5512304,5904057528.982915
121,383999980.05293864,123771.3323572836,768000000.0,0.0,3406177573.24319,5904066602.41863
122,383999979.72187275,124794.23589462048,768000000.0,0.0,3406161845.910978,5904075675.812451
123,383999979.388082,125817.1394310718,768000000.0,0.0,3406146118.554598,5904084749.164376
124,383999979.0515665,126840.04296663035,768000000.0,0.0,3406130391.1740456,5904093822.474408
125,383999978.7123261,127862.9465012889,768000000.0,0.0,3406114663.7693267,5904102895.742545
126,383999978.370361,128885.85003504012,768000000.0,0.0,3406098936.340436,5904111968.968786
127,383999978.0256709,129908.75356787677,768000000.0,0.0,3406083208.8873777,5904121042.153133
128,383999977.6782561,130931.6570997916,768000000.0,0.0,3406067481.4101486,5904130115.295586
129,383999977.3281164,131954.56063077739,768000000.0,0.0,3406051753.908751,5904139188.396142
130,383999976.9752519,132977.46416082678,768000000.0,0.0,3406036026.383185,5904148261.454803
131,383999976.61966264,134000.36768993264,768000000.0,0.0,3406020298.8334494,5904157334.47157
132,383999976.2613485,135023.2712180876,768000000.0,0.0,3406004571.2595463,5904166407.446441
133,383999975.90030956,136046.1747452845,768000000.0,0.0,3405988843.661473,5904175480.379416
134,383999975.5365458,137069.078271516,768000000.0,0.0,3405973116.0392323,5904184553.270496
135,383999975.17005724,138091.98179677487,768000000.0,0.0,3405957388.3928223,5904193626.119682
136,383999974.80084383,139114.88532105385,768000000.0,0.0,3405941660.722245,5904202698.9269705
137,383999974.42890555,140137.7888443457,768000000.0,0.0,3405925933.027498,5904211771.692366
138,383999974.05424255,141160.69236664314,768000000.0,0.0,3405910205.3085837,5904220844.415864
139,383999973.67685467,142183.59588793892,768000000.0,0.0,3405894477.565502,5904229917.0974655
140,383999973.29674196,143206.49940822576,768000000.0,0.0,3405878749.798251,5904238989.737173
141,383999972.9139044,144229.40292749647,768000000.0,0.0,3405863022.0068345,5904248062.334984
142,383999972.52834207,145252.3064457437,768000000.0,0.0,3405847294.1912484,5904257134.890899
143,383999972.1400549,146275.20996296027,768000000.0,0.0,3405831566.3514957,5904266207.404917
144,383999971.7490429,147298.11347913888,768000000.0,0.0,3405815838.4875755,5904275279.87704
145,383999971.35530615,148321.01699427224,768000000.0,0.0,3405800110.5994887,5904284352.307267
146,383999970.9588445,149343.92050835319,768000000.0,0.0,3405784382.6872334,5904293424.695598
147,383999970.55965805,150366.82402137437,768000000.0,0.0,3405768654.7508106,5904302497.042033
148,383999970.15774673,151389.72753332858,768000000.0,0.0,3405752926.7902226,5904311569.346571
149,383999969.75311065,152412.63104420854,768000000.0,0.0,3405737198.8054667,5904320641.609213
150,383999969.34574974,153435.534554007,768000000.0,0.0,3405721470.7965446,5904329713.829958
151,383999968.935664,154458.43806271668,768000000.0,0.0,3405705742.763455,5904338786.008807
152,383999968.52285343,155481.34157033035,768000000.0,0.0,3405690014.7062006,5904347858.145759
153,383999968.10731804,156504.24507684077,768000000.0,0.0,3405674286.624778,5904356930.240815
154,383999967.6890578,157527.14858224062,768000000.0,0.0,3405658558.51919,5904366002.293975
155,383999967.2680728,158550.0520865227,768000000.0,0.0,3405642830.389435,5904375074.305236
156,383999966.844363,159572.95558967968,768000000.0,0.0,3405627102.235514,5904384146.274602
157,383999966.4179283,160595.85909170436,768000000.0,0.0,3405611374.0574284,5904393218.202071
158,383999965.9887688,161618.7625925895,768000000.0,0.0,3405595645.855176,5904402290.087644
159,383999965.55688447,162641.6660923278,768000000.0,0.0,3405579917.628758,5904411361.931316
160,383999965.1222753,163664.56959091203,768000000.0,0.0,3405564189.3781734,5904420433.733095
161,383999964.68494135,164687.47308833487,768000000.0,0.0,3405548461.1034255,5904429505.492975
162,383999964.2448826,165710.37658458916,768000000.0,0.0,3405532732.80451,5904438577.210959
163,383999963.802099,166733.28007966751,768000000.0,0.0,3405517004.481431,5904447648.887045
164,383999963.35659057,167756.1835735628,768000000.0,0.0,3405501276.134186,5904456720.521234
165,383999962.9083573,168779.0870662677,768000000.0,0.0,3405485547.7627745,5904465792.113526
166,383999962.4573992,169801.990557775,768000000.0,0.0,3405469819.3672004,5904474863.6639185
167,383999962.00371635,170824.89404807735,768000000.0,0.0,3405454090.9474597,5904483935.172417
168,383999961.5473086,171847.79753716753,768000000.0,0.0,3405438362.503556,5904493006.639015
169,383999961.0881761,172870.70102503832,768000000.0,0.0,3405422634.035486,5904502078.063716
170,383999960.6263187,173893.60451168244,768000000.0,0.0,3405406905.543253,5904511149.44652
171,383999960.1617365,174916.50799709262,768000000.0,0.0,3405391177.026854,5904520220.787426
172,383999959.6944295,175939.41148126163,768000000.0,0.0,3405375448.486293,5904529292.086433
173,383999959.22439766,176962.31496418215,768000000.0,0.0,3405359719.921565,5904538363.343543
174,383999958.75164104,177985.21844584701,768000000.0,0.0,3405343991.332674,5904547434.558757
175,383999958.2761596,179008.12192624892,768000000.0,0.0,3405328262.7196198,5904556505.73207
176,383999957.79795325,180031.02540538055,768000000.0,0.0,3405312534.082401,5904565576.863485
177,383999957.31702214,181053.92888323477,768000000.0,0.0,3405296805.421019,5904574647.953003
178,383999956.8333662,182076.83235980422,768000000.0,0.0,3405281076.7354727,5904583719.000624
179,383999956.34698546,183099.73583508166,768000000.0,0.0,3405265348.0257645,5904592790.006344
180,383999955.8578799,184122.63930905986,768000000.0,0.0,3405249619.291891,5904601860.970168
181,383999955.36604947,185145.54278173155,768000000.0,0.0,3405233890.533856,5904610931.892092
182,383999954.8714943,186168.4462530894,768000000.0,0.0,3405218161.7516556,5904620002.772118
183,383999954.3742142,187191.34972312627,768000000.0,0.0,3405202432.9452925,5904629073.610246
184,383999953.87420934,188214.25319183487,768000000.0,0.0,3405186704.1147685,5904638144.406474
185,383999953.37147963,189237.15665920792,768000000.0,0.0,3405170975.2600794,5904647215.160805
186,383999952.8660251,190260.0601252381,768000000.0,0.0,3405155246.38123,5904656285.873237
187,383999952.3578458,191282.96358991833,768000000.0,0.0,3405139517.4782157,5904665356.543769
188,383999951.84694165,192305.86705324118,768000000.0,0.0,3405123788.551041,5904674427.172402
189,383999951.3333127,193328.77051519943,768000000.0,0.0,3405108059.599702,5904683497.759138
190,383999950.81695884,194351.67397578582,768000000.0,0.0,3405092330.624202,5904692568.303974
191,383999950.29788023,195374.57743499315,768000000.0,0.0,3405076601.6245384,5904701638.80691
192,383999949.7760768,196397.4808928141,768000000.0,0.0,3405060872.6007133,5904710709.267948
193,383999949.2515485,197420.38434924145,768000000.0,0.0,3405045143.5527277,5904719779.687087
194,383999948.72429544,198443.28780426795,768000000.0,0.0,3405029414.4805784,5904728850.064325
195,383999948.1943175,199466.19125788627,768000000.0,0.0,3405013685.3842688,5904737920.399666
196,383999947.66161484,200489.09471008927,768000000.0,0.0,3404997956.2637963,5904746990.693107
197,383999947.12618726,201511.9981608695,768000000.0,0.0,3404982227.119164,5904756060.944648
198,383999946.58803487,202534.90161021997,768000000.0,0.0,3404966497.9503684,5904765131.154289
199,383999946.0471577,203557.8050581332,768000000.0,0.0,3404950768.7574134,5904774201.322031
200,383999945.50355566,204580.70850460196,768000000.0,0.0,3404935039.540295,5904783271.447874
201,383999944.9572288,205603.6119496191,768000000.0,0.0,3404919310.299016,5904792341.531818
202,383999944.40817714,206626.51539317728,768000000.0,0.0,3404903581.033578,5904801411.57386
203,383999943.85640067,207649.41883526923,768000000.0,0.0,3404887851.743977,5904810481.574003
204,383999943.3018994,208672.3222758878,768000000.0,0.0,3404872122.4302173,5904819551.532246
205,383999942.7446732,209695.22571502562,768000000.0,0.0,3404856393.0922956,5904828621.448589
206,383999942.18472224,210718.12915267542,768000000.0,0.0,3404840663.7302146,5904837691.323032
207,383999941.6220465,211741.03258883004,768000000.0,0.0,3404824934.3439717,5904846761.155576
208,383999941.05664593,212763.93602348218,768000000.0,0.0,3404809204.93357,5904855830.946219
209,383999940.4885205,213786.83945662456,768000000.0,0.0,3404793475.4990067,5904864900.6949625
210,383999939.91767025,214809.74288824986,768000000.0,0.0,3404777746.0402837,5904873970.401805
211,383999939.3440952,215832.64631835098,768000000.0,0.0,3404762016.557402,5904883040.066748
