Time (days),Moon X Position (m),Moon Y Position (m),Moonlet X Position (m),Moonlet Y Position (m),L5 X Position (m),L5 Y Position (m)
0,384000000.0,0.0,768000000.0,1022.9035909124276,643600080402.5804,0.0
1,383999999.9986376,1022.9035909112177,768000000.0,2045.807181824855,643600080402.0087,1714429.2535320283
2,383999999.99455035,2045.8071818151773,768000000.0,3068.7107727372827,643600080398.0107,3428858.5070670885
3,383999999.9877383,3068.71077270462,768000000.0,4091.6143636497095,643600080390.5874,5143287.760602135
4,383999999.9782014,4091.614363572287,768000000.0,5114.517954562136,643600080379.7377,6857717.01413412
5,383999999.96593976,5114.517954410921,768000000.0,6137.421545474564,643600080365.4624,8572146.267659998
6,383999999.9509532,6137.421545213263,768000000.0,7160.325136386992,643600080347.7612,10286575.52117672
7,383999999.93324184,7160.325135972053,768000000.0,8183.22872729942,643600080326.634,12001004.774681242
8,383999999.9128057,8183.228726680036,768000000.0,9206.132318211847,643600080302.0813,13715434.028170513
9,383999999.88964474,9206.13231732995,768000000.0,10229.035909124274,643600080274.1023,15429863.281641489
10,383999999.8637589,10229.03590791454,768000000.0,11251.939500036702,643600080242.6975,17144292.53509112
11,383999999.8351483,11251.939498426545,768000000.0,12274.84309094913,643600080207.8672,18858721.788516376
12,383999999.8038128,12274.84308885871,768000000.0,13297.746681861558,643600080169.6106,20573151.04191418
13,383999999.7697525,13297.746679203772,768000000.0,14320.650272773984,643600080127.9283,22287580.29528151
14,383999999.7329674,14320.65026945447,768000000.0,15343.553863686415,643600080082.82,24002009.548615303
15,383999999.6934575,15343.553859603557,768000000.0,16366.457454598842,643600080034.286,25716438.801912524
16,383999999.65122277,16366.457449643765,768000000.0,17389.361045511272,643600079982.3262,27430868.05517013
17,383999999.60626316,17389.361039567837,768000000.0,18412.264636423704,643600079926.9403,29145297.308385056
18,383999999.5585788,18412.26462936852,768000000.0,19435.168227336137,643600079868.1289,30859726.561554275
19,383999999.5081696,19435.168219038544,768000000.0,20458.071818248565,643600079805.8912,32574155.81467472
20,383999999.45503557,20458.07180857067,768000000.0,21480.975409160998,643600079740.2279,34288585.06774336
21,383999999.39917666,21480.97539795762,768000000.0,22503.879000073426,643600079671.1385,36003014.32075714
22,383999999.340593,22503.87898719214,768000000.0,23526.782590985855,643600079598.6234,37717443.57371302
23,383999999.27928454,23526.78257626698,768000000.0,24549.68618189828,643600079522.6825,39431872.82660796
24,383999999.2152512,24549.68616517488,768000000.0,25572.589772810705,643600079443.3154,41146302.07943888
25,383999999.148493,25572.589753908574,768000000.0,26595.493363723137,643600079360.5228,42860731.33220277
26,383999999.07901007,26595.49334246081,768000000.0,27618.39695463557,643600079274.3042,44575160.58489655
27,383999999.00680226,27618.39693082432,768000000.0,28641.300545547994,643600079184.6598,46289589.83751721
28,383999998.9318697,28641.30051899186,768000000.0,29664.204136460423,643600079091.5894,48004019.09006168
29,383999998.8542122,29664.204106956164,768000000.0,30687.107727372848,643600078995.0934,49718448.34252693
30,383999998.77383,30687.10769470997,768000000.0,31710.011318285277,643600078895.1711,51432877.594909884
31,383999998.6907229,31710.01128224602,768000000.0,32732.91490919771,643600078791.8231,53147306.84720752
32,383999998.604891,32732.914869557066,768000000.0,33755.81850011013,643600078685.0494,54861736.09941678
33,383999998.5163343,33755.818456635854,768000000.0,34778.72209102256,643600078574.8499,56576165.351534635
34,383999998.4250527,34778.7220434751,768000000.0,35801.62568193499,643600078461.2242,58290594.603558026
35,383999998.33104634,35801.62563006755,768000000.0,36824.529272847416,643600078344.1729,60005023.85548389
36,383999998.23431516,36824.52921640597,768000000.0,37847.43286375985,643600078223.6956,61719453.1073092
37,383999998.13485914,37847.4328024831,768000000.0,38870.33645467229,643600078099.7925,63433882.35903091
38,383999998.0326783,38870.33638829164,768000000.0,39893.240045584724,643600077972.4634,65148311.61064595
39,383999997.92777264,39893.23997382438,768000000.0,40916.143636497145,643600077841.7084,66862740.86215131
40,383999997.82014215,40916.14355907404,768000000.0,41939.047227409574,643600077707.5277,68577170.11354391
41,383999997.7097869,41939.04714403335,768000000.0,42961.95081832201,643600077569.9213,70291599.36482076
42,383999997.59670675,42961.95072869508,768000000.0,43984.854409234445,643600077428.8887,72006028.61597873
43,383999997.48090184,43984.85431305195,768000000.0,45007.75800014688,643600077284.4304,73720457.86701481
44,383999997.36237204,45007.75789709671,768000000.0,46030.661591059295,643600077136.546,75434887.11792596
45,383999997.2411174,46030.6614808221,768000000.0,47053.56518197172,643600076985.2358,77149316.36870915
46,383999997.117138,47053.56506422086,768000000.0,48076.468772884145,643600076830.5,78863745.6193613
47,383999996.9904338,48076.468647285736,768000000.0,49099.372363796574,643600076672.3383,80578174.86987938
48,383999996.8610047,49099.37223000946,768000000.0,50122.275954708995,643600076510.7504,82292604.12026033
49,383999996.72885084,50122.27581238479,768000000.0,51145.17954562143,643600076345.7369,84007033.37050113
50,383999996.59397215,51145.17939440444,768000000.0,52168.08313653386,643600076177.2975,85721462.62059869
51,383999996.4563686,52168.08297606119,768000000.0,53190.986727446296,643600076005.4321,87435891.87055
52,383999996.3160403,53190.98655734775,768000000.0,54213.89031835873,643600075830.1409,89150321.12035201
53,383999996.1729871,54213.89013825687,768000000.0,55236.79390927116,643600075651.4238,90864750.37000166
54,383999996.02720916,55236.79371878131,768000000.0,56259.697500183596,643600075469.281,92579179.61949593
55,383999995.87870634,56259.69729891379,768000000.0,57282.601091096025,643600075283.7122,94293608.86883171
56,383999995.7274787,57282.600878647034,768000000.0,58305.50468200845,643600075094.7177,96008038.11800602
57,383999995.5735262,58305.504457973824,768000000.0,59328.40827292088,643600074902.2971,97722467.36701581
58,383999995.41684896,59328.408036886896,768000000.0,60351.31186383331,643600074706.4507,99436896.61585799
59,383999995.2574468,60351.31161537897,768000000.0,61374.21545474575,643600074507.1785,101151325.86452955
60,383999995.0953199,61374.2151934428,768000000.0,62397.119045658175,643600074304.4803,102865755.1130274
61,383999994.9304682,62397.11877107112,768000000.0,63420.022636570604,643600074098.3563,104580184.36134852
62,383999994.7628916,63420.02234825667,768000000.0,64442.926227483025,643600073888.8065,106294613.6094899
63,383999994.5925902,64442.92592499222,768000000.0,65465.829818395454,643600073675.8306,108009042.85744841
64,383999994.41956395,65465.82950127047,768000000.0,66488.73340930788,643600073459.429,109723472.10522108
65,383999994.243813,66488.73307708418,768000000.0,67511.63700022032,643600073239.6017,111437901.35280484
66,383999994.0653371,67511.63665242611,768000000.0,68534.54059113274,643600073016.3483,113152330.60019663
67,383999993.8841364,68534.54022728899,768000000.0,69557.44418204518,643600072789.6691,114866759.84739342
68,383999993.70021087,69557.44380166553,768000000.0,70580.3477729576,643600072559.564,116581189.09439214
69,383999993.5135606,70580.34737554852,768000000.0,71603.25136387003,643600072326.0331,118295618.34118976
70,383999993.32418543,71603.25094893067,768000000.0,72626.15495478245,643600072089.0763,120010047.58778323
71,383999993.13208544,72626.15452180474,768000000.0,73649.05854569488,643600071848.6936,121724476.83416952
72,383999992.9372606,73649.05809416344,768000000.0,74671.96213660731,643600071604.8851,123438906.08034553
73,383999992.73971105,74671.96166599955,768000000.0,75694.86572751973,643600071357.6508,125153335.3263083
74,383999992.53943664,75694.86523730581,768000000.0,76717.76931843215,643600071106.9904,126867764.57205467
75,383999992.33643734,76717.76880807492,768000000.0,77740.67290934458,643600070852.9043,128582193.81758171
76,383999992.1307133,77740.67237829966,768000000.0,78763.576500257,643600070595.3922,130296623.06288628
77,383999991.92226434,78763.57594797277,768000000.0,79786.48009116943,643600070334.4542,132011052.30796538
78,383999991.7110906,79786.47951708698,768000000.0,80809.38368208185,643600070070.0906,133725481.552816
79,383999991.4971921,80809.38308563503,768000000.0,81832.28727299428,643600069802.301,135439910.79743502
80,383999991.2805687,81832.28665360966,768000000.0,82855.1908639067,643600069531.0854,137154340.04181942
81,383999991.0612205,82855.1902210036,768000000.0,83878.09445481912,643600069256.4442,138868769.28596616
82,383999990.8391475,83878.09378780963,768000000.0,84900.99804573155,643600068978.3768,140583198.52987218
83,383999990.61434966,84900.99735402048,768000000.0,85923.90163664398,643600068696.8838,142297627.77353442
84,383999990.38682705,85923.90091962888,768000000.0,86946.80522755641,643600068411.9648,144012057.0169499
85,383999990.15657955,86946.80448462756,768000000.0,87969.70881846883,643600068123.62,145726486.2601155
86,383999989.92360723,87969.70804900928,768000000.0,88992.61240938125,643600067831.8494,147440915.5030282
87,383999989.68791014,88992.61161276676,768000000.0,90015.51600029369,643600067536.6527,149155344.74568498
88,383999989.44948816,90015.51517589278,768000000.0,91038.41959120611,643600067238.0302,150869773.98808274
89,383999989.2083414,91038.41873838006,768000000.0,92061.32318211855,643600066935.9819,152584203.23021844
90,383999988.9644698,92061.32230022133,768000000.0,93084.22677303097,643600066630.5078,154298632.47208914
91,383999988.7178734,93084.22586140934,768000000.0,94107.1303639434,643600066321.6078,156013061.71369165
92,383999988.4685522,94107.12942193686,768000000.0,95130.03395485584,643600066009.2817,157727490.95502302
93,383999988.2165061,95130.03298179657,768000000.0,96152.93754576826,643600065693.53,159441920.19608012
94,383999987.9617352,96152.93654098129,768000000.0,97175.84113668068,643600065374.3524,161156349.43685997
95,383999987.7042395,97175.84009948368,768000000.0,98198.74472759312,643600065051.7489,162870778.6773595
96,383999987.444019,98198.74365729655,768000000.0,99221.64831850555,643600064725.7194,164585207.91757566
97,383999987.18107367,99221.64721441259,768000000.0,100244.55190941798,643600064396.2642,166299637.15750542
98,383999986.9154035,100244.55077082459,768000000.0,101267.45550033041,643600064063.383,168014066.39714572
99,383999986.6470085,101267.45432652524,768000000.0,102290.35909124285,643600063727.0759,169728495.63649347
100,383999986.37588865,102290.3578815073,768000000.0,103313.26268215527,643600063387.3433,171442924.87554574
101,383999986.10204405,103313.26143576353,768000000.0,104336.16627306769,643600063044.1846,173157354.1142994
102,383999985.8254746,104336.16498928667,768000000.0,105359.0698639801,643600062697.6,174871783.3527514
103,383999985.5461803,105359.06854206944,768000000.0,106381.9734548925,643600062347.5895,176586212.59089863
104,383999985.2641612,106381.97209410463,768000000.0,107404.87704580494,643600061994.1531,178300641.8287382
105,383999984.97941726,107404.87564538488,768000000.0,108427.78063671736,643600061637.2908,180015071.06626695
106,383999984.69194853,108427.77919590304,768000000.0,109450.6842276298,643600061277.0028,181729500.30348194
107,383999984.401755,109450.68274565178,768000000.0,110473.58781854222,643600060913.289,183443929.54037997
108,383999984.10883653,110473.58629462392,768000000.0,111496.49140945464,643600060546.1492,185158358.7769581
109,383999983.8131934,111496.4898428121,768000000.0,112519.39500036706,643600060175.5835,186872788.0132132
110,383999983.5148253,112519.39339020917,768000000.0,113542.29859127948,643600059801.5918,188587217.24914238
111,383999983.2137324,113542.29693680776,768000000.0,114565.2021821919,643600059424.1744,190301646.4847424
112,383999982.9099148,114565.20048260066,768000000.0,115588.10577310433,643600059043.331,192016075.7200103
113,383999982.6033723,115588.10402758064,768000000.0,116611.00936401675,643600058659.062,193730504.95494306
114,383999982.294105,116611.00757174043,768000000.0,117633.91295492917,643600058271.367,195444934.18953764
115,383999981.98211277,117633.91111507277,768000000.0,118656.81654584159,643600057880.2461,197159363.42379102
116,383999981.66739583,118656.81465757037,768000000.0,119679.72013675404,643600057485.6995,198873792.65770006
117,383999981.34995407,119679.718199226,768000000.0,120702.62372766648,643600057087.7268,200588221.89126167
118,383999981.0297874,120702.6217400324,768000000.0,121725.52731857891,643600056686.3281,202302651.12447295
119,383999980.706896,121725.52527998228,768000000.0,122748.43090949133,643600056281.5039,204017080.3573308
120,383999980.38127977,122748.42881906845,768000000.0,123771.33450040377,643600055873.2535,205731509.58983213
121,383999980.05293864,123771.3323572836,768000000.0,124794.23809131619,643600055461.5776,207445938.82197395
122,383999979.72187275,124794.23589462048,768000000.0,125817.14168222861,643600055046.4756,209160368.05375314
123,383999979.388082,125817.1394310718,768000000.0,126840.04527314106,643600054627.9478,210874797.2851667
124,383999979.0515665,126840.04296663035,768000000.0,127862.9488640535,643600054205.9939,212589226.51621163
125,383999978.7123261,127862.9465012889,768000000.0,128885.85245496593,643600053780.6144,214303655.74688482
126,383999978.370361,128885.85003504012,768000000.0,129908.75604587837,643600053351.8092,216018084.97718328
127,383999978.0256709,129908.75356787677,768000000.0,130931.65963679079,643600052919.5776,217732514.20710385
128,383999977.6782561,130931.6570997916,768000000.0,131954.5632277032,643600052483.9205,219446943.43664354
129,383999977.3281164,131954.56063077739,768000000.0,132977.46681861568,643600052044.8374,221161372.66579938
130,383999976.9752519,132977.46416082678,768000000.0,134000.37040952808,643600051602.3286,222875801.8945683
131,383999976.61966264,134000.36768993264,768000000.0,135023.2740004405,643600051156.3937,224590231.12294713
132,383999976.2613485,135023.2712180876,768000000.0,136046.1775913529,643600050707.0331,226304660.35093293
133,383999975.90030956,136046.1747452845,768000000.0,137069.0811822653,643600050254.2465,228019089.57852262
134,383999975.5365458,137069.078271516,768000000.0,138091.98477317774,643600049798.034,229733518.80571318
135,383999975.17005724,138091.98179677487,768000000.0,139114.88836409015,643600049338.396,231447948.0325016
136,383999974.80084383,139114.88532105385,768000000.0,140137.7919550026,643600048875.3319,233162377.25888473
137,383999974.42890555,140137.7888443457,768000000.0,141160.69554591505,643600048408.8419,234876806.4848596
138,383999974.05424255,141160.69236664314,768000000.0,142183.59913682748,643600047938.9259,236591235.71042305
139,383999973.67685467,142183.59588793892,768000000.0,143206.50272773995,643600047465.5841,238305664.93557218
140,383999973.29674196,143206.49940822576,768000000.0,144229.40631865239,643600046988.8165,240020094.16030392
141,383999972.9139044,144229.40292749647,768000000.0,145252.30990956482,643600046508.6232,241734523.3846152
142,383999972.52834207,145252.3064457437,768000000.0,146275.21350047726,643600046025.0039,243448952.60850295
143,383999972.1400549,146275.20996296027,768000000.0,147298.1170913897,643600045537.9586,245163381.83196414
144,383999971.7490429,147298.11347913888,768000000.0,148321.0206823021,643600045047.4874,246877811.05499557
145,383999971.35530615,148321.01699427224,768000000.0,149343.9242732145,643600044553.5907,248592240.2775945
146,383999970.9588445,149343.92050835319,768000000.0,150366.82786412694,643600044056.2677,250306669.4997577
147,383999970.55965805,150366.82402137437,768000000.0,151389.73145503932,643600043555.5192,252021098.7214822
148,383999970.15774673,151389.72753332858,768000000.0,152412.63504595176,643600043051.3444,253735527.94276473
149,383999969.75311065,152412.63104420854,768000000.0,153435.53863686416,643600042543.744,255449957.16360253
150,383999969.34574974,153435.534554007,768000000.0,154458.44222777657,643600042032.7178,257164386.38399243
151,383999968.935664,154458.43806271668,768000000.0,155481.345818689,643600041518.2656,258878815.60393134
152,383999968.52285343,155481.34157033035,768000000.0,156504.24940960147,643600041000.3877,260593244.82341635
153,383999968.10731804,156504.24507684077,768000000.0,157527.15300051388,643600040479.0837,262307674.0424443
154,383999967.6890578,157527.14858224062,768000000.0,158550.05659142628,643600039954.354,264022103.26101214
155,383999967.2680728,158550.0520865227,768000000.0,159572.96018233872,643600039426.1982,265736532.47911683
156,383999966.844363,159572.95558967968,768000000.0,160595.86377325116,643600038894.6168,267450961.69675538
157,383999966.4179283,160595.85909170436,768000000.0,161618.76736416362,643600038359.6094,269165390.91392463
158,383999965.9887688,161618.7625925895,768000000.0,162641.67095507606,643600037821.1763,270879820.1306218
159,383999965.55688447,162641.6660923278,768000000.0,163664.57454598846,643600037279.3171,272594249.34684354
160,383999965.1222753,163664.56959091203,768000000.0,164687.47813690093,643600036734.0321,274308678.56258684
161,383999964.68494135,164687.47308833487,768000000.0,165710.38172781336,643600036185.3213,276023107.77784884
162,383999964.2448826,165710.37658458916,768000000.0,166733.28531872583,643600035633.1846,277737536.99262637
163,383999963.802099,166733.28007966751,768000000.0,167756.1889096383,643600035077.622,279451966.20691633
164,383999963.35659057,167756.1835735628,768000000.0,168779.09250055073,643600034518.6335,281166395.4207158
165,383999962.9083573,168779.0870662677,768000000.0,169801.99609146314,643600033956.2192,282880824.63402176
166,383999962.4573992,169801.990557775,768000000.0,170824.89968237554,643600033390.3789,284595253.8468309
167,383999962.00371635,170824.89404807735,768000000.0,171847.803273288,643600032821.1129,286309683.0591405
168,383999961.5473086,171847.79753716753,768000000.0,172870.70686420047,643600032248.4211,288024112.2709473
169,383999961.0881761,172870.70102503832,768000000.0,173893.61045511288,643600031672.3032,289738541.4822483
170,383999960.6263187,173893.60451168244,768000000.0,174916.5140460253,643600031092.7596,291452970.69304055
171,383999960.1617365,174916.50799709262,768000000.0,175939.4176369377,643600030509.79,293167399.9033208
172,383999959.6944295,175939.41148126163,768000000.0,176962.32122785007,643600029923.3945,294881829.11308616
173,383999959.22439766,176962.31496418215,768000000.0,177985.2248187625,643600029333.5734,296596258.32233363
174,383999958.75164104,177985.21844584701,768000000.0,179008.12840967492,643600028740.3262,298310687.53106
175,383999958.2761596,179008.12192624892,768000000.0,180031.03200058732,643600028143.6532,300025116.73926234
176,383999957.79795325,180031.02540538055,768000000.0,181053.93559149976,643600027543.5544,301739545.9469377
177,383999957.31702214,181053.92888323477,768000000.0,182076.8391824122,643600026940.0298,303453975.1540827
178,383999956.8333662,182076.83235980422,768000000.0,183099.74277332463,643600026333.079,305168404.3606945
179,383999956.34698546,183099.73583508166,768000000.0,184122.6463642371,643600025722.7025,306882833.56677014
180,383999955.8578799,184122.63930905986,768000000.0,185145.5499551495,643600025108.9001,308597262.77230644
181,383999955.36604947,185145.54278173155,768000000.0,186168.4535460619,643600024491.672,310311691.97730047
182,383999954.8714943,186168.4462530894,768000000.0,187191.3571369743,643600023871.0178,312026121.181749
183,383999954.3742142,187191.34972312627,768000000.0,188214.2607278867,643600023246.938,313740550.3856492
