Time (days),Moon X Position (m),Moon Y Position (m),Moonlet X Position (m),Moonlet Y Position (m),L5 X Position (m),L5 Y Position (m)
0,384000000.0,0.0,768000000.0,1022.9035909124276,6816160804.0258045,0.0
1,383999999.9986376,1022.9035909112177,768000000.0,2045.807181824855,6816160804.018738,18156.96709032239
2,383999999.99455035,2045.8071818151773,768000000.0,3068.7107727372827,6816160803.974713,36313.934180667915
3,383999999.9877383,3068.71077270462,768000000.0,4091.6143636497095,6816160803.893734,54470.90127099892
4,383999999.9782014,4091.614363572287,768000000.0,5114.517954562136,6816160803.775797,72627.86836127777
5,383999999.96593976,5114.517954410921,768000000.0,6137.421545474564,6816160803.620905,90784.83545146679
6,383999999.9509532,6137.421545213263,768000000.0,7160.325136386992,6816160803.429056,108941.80254152833
7,383999999.93324184,7160.325135972053,768000000.0,8183.22872729942,6816160803.200251,127098.76963142476
8,383999999.9128057,8183.228726680036,768000000.0,9206.132318211847,6816160802.934489,145255.73672111836
9,383999999.88964474,9206.13231732995,768000000.0,10229.035909124274,6816160802.631771,163412.70381057155
10,383999999.8637589,10229.03590791454,768000000.0,11251.939500036702,6816160802.292097,181569.67089974665
11,383999999.8351483,11251.939498426545,768000000.0,12274.84309094913,6816160801.915468,199726.637988606
12,383999999.8038128,12274.84308885871,768000000.0,13297.746681861558,6816160801.501881,217883.60507711192
13,383999999.7697525,13297.746679203772,768000000.0,14320.650272773984,6816160801.051337,236040.57216522677
14,383999999.7329674,14320.65026945447,768000000.0,15343.553863686415,6816160800.563838,254197.53925291295
15,383999999.6934575,15343.553859603557,768000000.0,16366.457454598842,6816160800.039384,272354.5063401328
16,383999999.65122277,16366.457449643765,768000000.0,17389.361045511272,6816160799.477972,290511.4734268486
17,383999999.60626316,17389.361039567837,768000000.0,18412.264636423704,6816160798.879604,308668.44051302277
18,383999999.5585788,18412.26462936852,768000000.0,19435.168227336137,6816160798.244281,326825.40759861754
19,383999999.5081696,19435.168219038544,768000000.0,20458.071818248565,6816160797.5720005,344982.37468359544
20,383999999.45503557,20458.07180857067,768000000.0,21480.975409160998,6816160796.862763,363139.34176791855
21,383999999.39917666,21480.97539795762,768000000.0,22503.879000073426,6816160796.1165695,381296.3088515494
22,383999999.340593,22503.87898719214,768000000.0,23526.782590985855,6816160795.333422,399453.27593445044
23,383999999.27928454,23526.78257626698,768000000.0,24549.68618189828,6816160794.513316,417610.2430165838
24,383999999.2152512,24549.68616517488,768000000.0,25572.589772810705,6816160793.656254,435767.21009791194
25,383999999.148493,25572.589753908574,768000000.0,26595.493363723137,6816160792.762236,453924.17717839713
26,383999999.07901007,26595.49334246081,768000000.0,27618.39695463557,6816160791.831263,472081.1442580018
27,383999999.00680226,27618.39693082432,768000000.0,28641.300545547994,6816160790.863333,490238.1113366882
28,383999998.9318697,28641.30051899186,768000000.0,29664.204136460423,6816160789.858445,508395.07841441873
29,383999998.8542122,29664.204106956164,768000000.0,30687.107727372848,6816160788.816603,526552.0454911558
30,383999998.77383,30687.10769470997,768000000.0,31710.011318285277,6816160787.737803,544709.0125668617
31,383999998.6907229,31710.01128224602,768000000.0,32732.91490919771,6816160786.622047,562865.9796414988
32,383999998.604891,32732.914869557066,768000000.0,33755.81850011013,6816160785.4693365,581022.9467150293
33,383999998.5163343,33755.818456635854,768000000.0,34778.72209102256,6816160784.279669,599179.9137874158
34,383999998.4250527,34778.7220434751,768000000.0,35801.62568193499,6816160783.053044,617336.8808586206
35,383999998.33104634,35801.62563006755,768000000.0,36824.529272847416,6816160781.789464,635493.8479286057
36,383999998.23431516,36824.52921640597,768000000.0,37847.43286375985,6816160780.488927,653650.8149973339
37,383999998.13485914,37847.4328024831,768000000.0,38870.33645467229,6816160779.151434,671807.7820647673
38,383999998.0326783,38870.33638829164,768000000.0,39893.240045584724,6816160777.776985,689964.7491308681
39,383999997.92777264,39893.23997382438,768000000.0,40916.143636497145,6816160776.365579,708121.7161955992
40,383999997.82014215,40916.14355907404,768000000.0,41939.047227409574,6816160774.917217,726278.6832589225
41,383999997.7097869,41939.04714403335,768000000.0,42961.95081832201,6816160773.431901,744435.6503208005
42,383999997.59670675,42961.95072869508,768000000.0,43984.854409234445,6816160771.909626,762592.6173811953
43,383999997.48090184,43984.85431305195,768000000.0,45007.75800014688,6816160770.350396,780749.5844400695
44,383999997.36237204,45007.75789709671,768000000.0,46030.661591059295,6816160768.754209,798906.5514973854
45,383999997.2411174,46030.6614808221,768000000.0,47053.56518197172,6816160767.121066,817063.5185531053
46,383999997.117138,47053.56506422086,768000000.0,48076.468772884145,6816160765.450965,835220.4856071915
47,383999996.9904338,48076.468647285736,768000000.0,49099.372363796574,6816160763.743911,853377.4526596066
48,383999996.8610047,49099.37223000946,768000000.0,50122.275954708995,6816160761.999898,871534.4197103125
49,383999996.72885084,50122.27581238479,768000000.0,51145.17954562143,6816160760.218931,889691.3867592722
50,383999996.59397215,51145.17939440444,768000000.0,52168.08313653386,6816160758.401007,907848.3538064472
51,383999996.4563686,52168.08297606119,768000000.0,53190.986727446296,6816160756.546126,926005.3208518007
52,383999996.3160403,53190.98655734775,768000000.0,54213.89031835873,6816160754.654288,944162.2878952943
53,383999996.1729871,54213.89013825687,768000000.0,55236.79390927116,6816160752.725495,962319.2549368908
54,383999996.02720916,55236.79371878131,768000000.0,56259.697500183596,6816160750.759747,980476.2219765525
55,383999995.87870634,56259.69729891379,768000000.0,57282.601091096025,6816160748.757041,998633.1890142417
56,383999995.7274787,57282.600878647034,768000000.0,58305.50468200845,6816160746.71738,1016790.1560499208
57,383999995.5735262,58305.504457973824,768000000.0,59328.40827292088,6816160744.640762,1034947.1230835521
58,383999995.41684896,59328.408036886896,768000000.0,60351.31186383331,6816160742.527187,1053104.090115098
59,383999995.2574468,60351.31161537897,768000000.0,61374.21545474575,6816160740.376657,1071261.0571445206
60,383999995.0953199,61374.2151934428,768000000.0,62397.119045658175,6816160738.189169,1089418.0241717822
61,383999994.9304682,62397.11877107112,768000000.0,63420.022636570604,6816160735.964727,1107574.9911968457
62,383999994.7628916,63420.02234825667,768000000.0,64442.926227483025,6816160733.703327,1125731.9582196728
63,383999994.5925902,64442.92592499222,768000000.0,65465.829818395454,6816160731.404971,1143888.9252402263
64,383999994.41956395,65465.82950127047,768000000.0,66488.73340930788,6816160729.069659,1162045.8922584685
65,383999994.243813,66488.73307708418,768000000.0,67511.63700022032,6816160726.6973915,1180202.8592743617
66,383999994.0653371,67511.63665242611,768000000.0,68534.54059113274,6816160724.288167,1198359.826287868
67,383999993.8841364,68534.54022728899,768000000.0,69557.44418204518,6816160721.841986,1216516.7932989502
68,383999993.70021087,69557.44380166553,768000000.0,70580.3477729576,6816160719.358849,1234673.76030757
69,383999993.5135606,70580.34737554852,768000000.0,71603.25136387003,6816160716.838757,1252830.7273136906
70,383999993.32418543,71603.25094893067,768000000.0,72626.15495478245,6816160714.281706,1270987.6943172736
71,383999993.13208544,72626.15452180474,768000000.0,73649.05854569488,6816160711.687701,1289144.6613182817
72,383999992.9372606,73649.05809416344,768000000.0,74671.96213660731,6816160709.056738,1307301.628316677
73,383999992.73971105,74671.96166599955,768000000.0,75694.86572751973,6816160706.388821,1325458.5953124221
74,383999992.53943664,75694.86523730581,768000000.0,76717.76931843215,6816160703.683946,1343615.5623054793
75,383999992.33643734,76717.76880807492,768000000.0,77740.67290934458,6816160700.942116,1361772.529295811
76,383999992.1307133,77740.67237829966,768000000.0,78763.576500257,6816160698.163328,1379929.4962833794
77,383999991.92226434,78763.57594797277,768000000.0,79786.48009116943,6816160695.347584,1398086.4632681469
78,383999991.7110906,79786.47951708698,768000000.0,80809.38368208185,6816160692.494886,1416243.430250076
79,383999991.4971921,80809.38308563503,768000000.0,81832.28727299428,6816160689.60523,1434400.3972291285
80,383999991.2805687,81832.28665360966,768000000.0,82855.1908639067,6816160686.678618,1452557.3642052675
81,383999991.0612205,82855.1902210036,768000000.0,83878.09445481912,6816160683.715049,1470714.3311784547
82,383999990.8391475,83878.09378780963,768000000.0,84900.99804573155,6816160680.714525,1488871.2981486532
83,383999990.61434966,84900.99735402048,768000000.0,85923.90163664398,6816160677.677043,1507028.2651158243
84,383999990.38682705,85923.90091962888,768000000.0,86946.80522755641,6816160674.602607,1525185.2320799315
85,383999990.15657955,86946.80448462756,768000000.0,87969.70881846883,6816160671.491215,1543342.199040936
86,383999989.92360723,87969.70804900928,768000000.0,88992.61240938125,6816160668.342864,1561499.1659988011
87,383999989.68791014,88992.61161276676,768000000.0,90015.51600029369,6816160665.157558,1579656.1329534887
88,383999989.44948816,90015.51517589278,768000000.0,91038.41959120611,6816160661.935295,1597813.0999049612
89,383999989.2083414,91038.41873838006,768000000.0,92061.32318211855,6816160658.676077,1615970.0668531805
90,383999988.9644698,92061.32230022133,768000000.0,93084.22677303097,6816160655.379903,1634127.0337981102
91,383999988.7178734,93084.22586140934,768000000.0,94107.1303639434,6816160652.046772,1652284.0007397116
92,383999988.4685522,94107.12942193686,768000000.0,95130.03395485584,6816160648.676685,1670440.9676779474
93,383999988.2165061,95130.03298179657,768000000.0,96152.93754576826,6816160645.269641,1688597.9346127796
94,383999987.9617352,96152.93654098129,768000000.0,97175.84113668068,6816160641.825641,1706754.9015441707
95,383999987.7042395,97175.84009948368,768000000.0,98198.74472759312,6816160638.344686,1724911.8684720835
96,383999987.444019,98198.74365729655,768000000.0,99221.64831850555,6816160634.826774,1743068.8353964803
97,383999987.18107367,99221.64721441259,768000000.0,100244.55190941798,6816160631.271906,1761225.8023173227
98,383999986.9154035,100244.55077082459,768000000.0,101267.45550033041,6816160627.68008,1779382.7692345737
99,383999986.6470085,101267.45432652524,768000000.0,102290.35909124285,6816160624.051299,1797539.7361481949
100,383999986.37588865,102290.3578815073,768000000.0,103313.26268215527,6816160620.385562,1815696.7030581492
101,383999986.10204405,103313.26143576353,768000000.0,104336.16627306769,6816160616.682868,1833853.6699643994
102,383999985.8254746,104336.16498928667,768000000.0,105359.0698639801,6816160612.94322,1852010.6368669076
103,383999985.5461803,105359.06854206944,768000000.0,106381.9734548925,6816160609.166614,1870167.6037656348
104,383999985.2641612,106381.97209410463,768000000.0,107404.87704580494,6816160605.35305,1888324.5706605457
105,383999984.97941726,107404.87564538488,768000000.0,108427.78063671736,6816160601.502531,1906481.5375516005
106,383999984.69194853,108427.77919590304,768000000.0,109450.6842276298,6816160597.615058,1924638.504438763
107,383999984.401755,109450.68274565178,768000000.0,110473.58781854222,6816160593.690627,1942795.4713219947
108,383999984.10883653,110473.58629462392,768000000.0,111496.49140945464,6816160589.7292385,1960952.4382012584
109,383999983.8131934,111496.4898428121,768000000.0,112519.39500036706,6816160585.730895,1979109.4050765159
110,383999983.5148253,112519.39339020917,768000000.0,113542.29859127948,6816160581.695596,1997266.3719477307
111,383999983.2137324,113542.29693680776,768000000.0,114565.2021821919,6816160577.62334,2015423.3388148637
112,383999982.9099148,114565.20048260066,768000000.0,115588.10577310433,6816160573.514127,2033580.3056778777
113,383999982.6033723,115588.10402758064,768000000.0,116611.00936401675,6816160569.367959,2051737.272536736
114,383999982.294105,116611.00757174043,768000000.0,117633.91295492917,6816160565.184834,2069894.2393913998
115,383999981.98211277,117633.91111507277,768000000.0,118656.81654584159,6816160560.964752,2088051.206241832
116,383999981.66739583,118656.81465757037,768000000.0,119679.72013675404,6816160556.707716,2106208.173087995
117,383999981.34995407,119679.718199226,768000000.0,120702.62372766648,6816160552.413721,2124365.13992985
118,383999981.0297874,120702.6217400324,768000000.0,121725.52731857891,6816160548.082771,2142522.1067673615
119,383999980.706896,121725.52527998228,768000000.0,122748.43090949133,6816160543.714866,2160679.07360049
120,383999980.38127977,122748.42881906845,768000000.0,123771.33450040377,6816160539.310003,2178836.040429199
121,383999980.05293864,123771.3323572836,768000000.0,124794.23809131619,6816160534.868184,2196993.0072534503
122,383999979.72187275,124794.23589462048,768000000.0,125817.14168222861,6816160530.389409,2215149.9740732056
123,383999979.388082,125817.1394310718,768000000.0,126840.04527314106,6816160525.873678,2233306.9408884286
124,383999979.0515665,126840.04296663035,768000000.0,127862.9488640535,6816160521.320991,2251463.90769908
125,383999978.7123261,127862.9465012889,768000000.0,128885.85245496593,6816160516.731348,2269620.8745051245
126,383999978.370361,128885.85003504012,768000000.0,129908.75604587837,6816160512.104748,2287777.841306522
127,383999978.0256709,129908.75356787677,768000000.0,130931.65963679079,6816160507.441191,2305934.8081032364
128,383999977.6782561,130931.6570997916,768000000.0,131954.5632277032,6816160502.740679,2324091.7748952294
129,383999977.3281164,131954.56063077739,768000000.0,132977.46681861568,6816160498.00321,2342248.741682464
130,383999976.9752519,132977.46416082678,768000000.0,134000.37040952808,6816160493.228785,2360405.7084649014
131,383999976.61966264,134000.36768993264,768000000.0,135023.2740004405,6816160488.417403,2378562.6752425046
132,383999976.2613485,135023.2712180876,768000000.0,136046.1775913529,6816160483.569066,2396719.6420152364
133,383999975.90030956,136046.1747452845,768000000.0,137069.0811822653,6816160478.683772,2414876.608783058
134,383999975.5365458,137069.078271516,768000000.0,138091.98477317774,6816160473.761521,2433033.5755459326
135,383999975.17005724,138091.98179677487,768000000.0,139114.88836409015,6816160468.802316,2451190.542303823
136,383999974.80084383,139114.88532105385,768000000.0,140137.7919550026,6816160463.806154,2469347.5090566906
137,383999974.42890555,140137.7888443457,768000000.0,141160.69554591505,6816160458.773035,2487504.4758044984
138,383999974.05424255,141160.69236664314,768000000.0,142183.59913682748,6816160453.702959,2505661.4425472077
139,383999973.67685467,142183.59588793892,768000000.0,143206.50272773995,6816160448.595928,2523818.4092847817
140,383999973.29674196,143206.49940822576,768000000.0,144229.40631865239,6816160443.451941,2541975.376017183
141,383999972.9139044,144229.40292749647,768000000.0,145252.30990956482,6816160438.270996,2560132.342744374
142,383999972.52834207,145252.3064457437,768000000.0,146275.21350047726,6816160433.053098,2578289.309466316
143,383999972.1400549,146275.20996296027,768000000.0,147298.1170913897,6816160427.798241,2596446.276182972
144,383999971.7490429,147298.11347913888,768000000.0,148321.0206823021,6816160422.506427,2614603.242894304
145,383999971.35530615,148321.01699427224,768000000.0,149343.9242732145,6816160417.177659,2632760.209600275
146,383999970.9588445,149343.92050835319,768000000.0,150366.82786412694,6816160411.811933,2650917.176300847
147,383999970.55965805,150366.82402137437,768000000.0,151389.73145503932,6816160406.409252,2669074.1429959824
148,383999970.15774673,151389.72753332858,768000000.0,152412.63504595176,6816160400.969613,2687231.1096856426
149,383999969.75311065,152412.63104420854,768000000.0,153435.53863686416,6816160395.493021,2705388.076369792
150,383999969.34574974,153435.534554007,768000000.0,154458.44222777657,6816160389.979471,2723545.0430483916
151,383999968.935664,154458.43806271668,768000000.0,155481.345818689,6816160384.428965,2741702.0097214035
152,383999968.52285343,155481.34157033035,768000000.0,156504.24940960147,6816160378.841502,2759858.976388791
153,383999968.10731804,156504.24507684077,768000000.0,157527.15300051388,6816160373.217083,2778015.943050516
154,383999967.6890578,157527.14858224062,768000000.0,158550.05659142628,6816160367.555706,2796172.9097065395
155,383999967.2680728,158550.0520865227,768000000.0,159572.96018233872,6816160361.857374,2814329.876356825
156,383999966.844363,159572.95558967968,768000000.0,160595.86377325116,6816160356.1220875,2832486.843001337
157,383999966.4179283,160595.85909170436,768000000.0,161618.76736416362,6816160350.349843,2850643.8096400346
158,383999965.9887688,161618.7625925895,768000000.0,162641.67095507606,6816160344.540643,2868800.7762728813
159,383999965.55688447,162641.6660923278,768000000.0,163664.57454598846,6816160338.694488,2886957.7428998398
160,383999965.1222753,163664.56959091203,768000000.0,164687.47813690093,6816160332.811374,2905114.7095208718
161,383999964.68494135,164687.47308833487,768000000.0,165710.38172781336,6816160326.891305,2923271.6761359405
162,383999964.2448826,165710.37658458916,768000000.0,166733.28531872583,6816160320.934279,2941428.6427450073
163,383999963.802099,166733.28007966751,768000000.0,167756.1889096383,6816160314.940297,2959585.6093480345
164,383999963.35659057,167756.1835735628,768000000.0,168779.09250055073,6816160308.90936,2977742.5759449857
165,383999962.9083573,168779.0870662677,768000000.0,169801.99609146314,6816160302.841466,2995899.5425358224
166,383999962.4573992,169801.990557775,768000000.0,170824.89968237554,6816160296.736615,3014056.509120507
167,383999962.00371635,170824.89404807735,768000000.0,171847.803273288,6816160290.594809,3032213.4756990015
168,383999961.5473086,171847.79753716753,768000000.0,172870.70686420047,6816160284.416047,3050370.4422712694
169,383999961.0881761,172870.70102503832,768000000.0,173893.61045511288,6816160278.200326,3068527.4088372714
170,383999960.6263187,173893.60451168244,768000000.0,174916.5140460253,6816160271.947652,3086684.375396971
171,383999960.1617365,174916.50799709262,768000000.0,175939.4176369377,6816160265.658018,3104841.34195033
172,383999959.6944295,175939.41148126163,768000000.0,176962.32122785007,6816160259.33143,3122998.308497311
173,383999959.22439766,176962.31496418215,768000000.0,177985.2248187625,6816160252.967888,3141155.2750378773
174,383999958.75164104,177985.21844584701,768000000.0,179008.12840967492,6816160246.567388,3159312.2415719894
175,383999958.2761596,179008.12192624892,768000000.0,180031.03200058732,6816160240.12993,3177469.2080996106
176,383999957.79795325,180031.02540538055,768000000.0,181053.93559149976,6816160233.655519,3195626.174620704
177,383999957.31702214,181053.92888323477,768000000.0,182076.8391824122,6816160227.144149,3213783.14113523
178,383999956.8333662,182076.83235980422,768000000.0,183099.74277332463,6816160220.595822,3231940.1076431517
179,383999956.34698546,183099.73583508166,768000000.0,184122.6463642371,6816160214.010541,3250097.0741444333
180,383999955.8578799,184122.63930905986,768000000.0,185145.5499551495,6816160207.388303,3268254.0406390345
181,383999955.36604947,185145.54278173155,768000000.0,186168.4535460619,6816160200.72911,3286411.0071269195
182,383999954.8714943,186168.4462530894,768000000.0,187191.3571369743,6816160194.032958,3304567.9736080496
183,383999954.3742142,187191.34972312627,768000000.0,188214.2607278867,6816160187.299851,3322724.9400823875
