Time (days),Moon X Position (m),Moon Y Position (m),Moonlet1 X Position (m)),Moonlet1 Y Position (m),Moonlet2 X Position (m),Moonlet2 Y Position (m),L4 X Position (m),L4 Y Position (m)
0,384000000.0,0.0,768000000.0,1022.9035909124276,778000000.0,1022.9035909124276,-191999999.64469683,4.07260891521186e-08
1,383999999.9986376,1022.9035909112177,768000000.0,2045.807181824855,778000000.0,2045.807181824855,-191999999.64401564,-885.8604945705517
2,383999999.99455035,2045.8071818151773,768000000.0,3068.7107727372827,778000000.0,3068.7107727372827,-191999999.641972,-1771.7209891755435
3,383999999.9877383,3068.71077270462,768000000.0,4091.6143636497095,778000000.0,4091.6143636497095,-191999999.638566,-2657.581483767963
4,383999999.9782014,4091.614363572287,768000000.0,5114.517954562136,778000000.0,5114.517954562136,-191999999.63379753,-3543.4419783415256
5,383999999.96593976,5114.517954410921,768000000.0,6137.421545474564,778000000.0,6137.421545474564,-191999999.6276667,-4429.302472889944
6,383999999.9509532,6137.421545213263,768000000.0,7160.325136386992,778000000.0,7160.325136386992,-191999999.62017342,-5315.162967406932
7,383999999.93324184,7160.325135972053,768000000.0,8183.22872729942,778000000.0,8183.22872729942,-191999999.61131778,-6201.023461886205
8,383999999.9128057,8183.228726680036,768000000.0,9206.132318211847,778000000.0,9206.132318211847,-191999999.6010997,-7086.883956321475
9,383999999.88964474,9206.13231732995,768000000.0,10229.035909124274,778000000.0,10229.035909124274,-191999999.58951923,-7972.744450706457
10,383999999.8637589,10229.03590791454,768000000.0,11251.939500036702,778000000.0,11251.939500036702,-191999999.57657632,-8858.604945034867
11,383999999.8351483,11251.939498426545,768000000.0,12274.84309094913,778000000.0,12274.84309094913,-191999999.562271,-9744.465439300417
12,383999999.8038128,12274.84308885871,768000000.0,13297.746681861558,778000000.0,13297.746681861558,-191999999.54660326,-10630.32593349682
13,383999999.7697525,13297.746679203772,768000000.0,14320.650272773984,778000000.0,14320.650272773984,-191999999.5295731,-11516.186427617793
14,383999999.7329674,14320.65026945447,768000000.0,15343.553863686415,778000000.0,15343.553863686415,-191999999.51118055,-12402.046921657047
15,383999999.6934575,15343.553859603557,768000000.0,16366.457454598842,778000000.0,16366.457454598842,-191999999.4914256,-13287.907415608299
16,383999999.65122277,16366.457449643765,768000000.0,17389.361045511272,778000000.0,17389.361045511272,-191999999.47030824,-14173.76790946526
17,383999999.60626316,17389.361039567837,768000000.0,18412.264636423704,778000000.0,18412.264636423704,-191999999.44782844,-15059.628403221646
18,383999999.5585788,18412.26462936852,768000000.0,19435.168227336137,778000000.0,19435.168227336137,-191999999.42398626,-15945.48889687117
19,383999999.5081696,19435.168219038544,768000000.0,20458.071818248565,778000000.0,20458.071818248565,-191999999.39878166,-16831.349390407548
20,383999999.45503557,20458.07180857067,768000000.0,21480.975409160998,778000000.0,21480.975409160998,-191999999.37221465,-17717.20988382449
21,383999999.39917666,21480.97539795762,768000000.0,22503.879000073426,778000000.0,22503.879000073426,-191999999.3442852,-18603.070377115717
22,383999999.340593,22503.87898719214,768000000.0,23526.782590985855,778000000.0,23526.782590985855,-191999999.31499335,-19488.930870274933
23,383999999.27928454,23526.78257626698,768000000.0,24549.68618189828,778000000.0,24549.68618189828,-191999999.28433913,-20374.791363295863
24,383999999.2152512,24549.68616517488,768000000.0,25572.589772810705,778000000.0,25572.589772810705,-191999999.25232247,-21260.65185617221
25,383999999.148493,25572.589753908574,768000000.0,26595.493363723137,778000000.0,26595.493363723137,-191999999.21894336,-22146.512348897697
26,383999999.07901007,26595.49334246081,768000000.0,27618.39695463557,778000000.0,27618.39695463557,-191999999.1842019,-23032.37284146604
27,383999999.00680226,27618.39693082432,768000000.0,28641.300545547994,778000000.0,28641.300545547994,-191999999.148098,-23918.23333387094
28,383999998.9318697,28641.30051899186,768000000.0,29664.204136460423,778000000.0,29664.204136460423,-191999999.1106317,-24804.093826106116
29,383999998.8542122,29664.204106956164,768000000.0,30687.107727372848,778000000.0,30687.107727372848,-191999999.07180297,-25689.954318165295
30,383999998.77383,30687.10769470997,768000000.0,31710.011318285277,778000000.0,31710.011318285277,-191999999.03161186,-26575.814810042175
31,383999998.6907229,31710.01128224602,768000000.0,32732.91490919771,778000000.0,32732.91490919771,-191999998.9900583,-27461.67530173048
32,383999998.604891,32732.914869557066,768000000.0,33755.81850011013,778000000.0,33755.81850011013,-191999998.94714236,-28347.535793223913
33,383999998.5163343,33755.818456635854,768000000.0,34778.72209102256,778000000.0,34778.72209102256,-191999998.902864,-29233.3962845162
34,383999998.4250527,34778.7220434751,768000000.0,35801.62568193499,778000000.0,35801.62568193499,-191999998.8572232,-30119.256775601047
35,383999998.33104634,35801.62563006755,768000000.0,36824.529272847416,778000000.0,36824.529272847416,-191999998.81022003,-31005.11726647217
36,383999998.23431516,36824.52921640597,768000000.0,37847.43286375985,778000000.0,37847.43286375985,-191999998.76185444,-31890.97775712329
37,383999998.13485914,37847.4328024831,768000000.0,38870.33645467229,778000000.0,38870.33645467229,-191999998.71212643,-32776.83824754811
38,383999998.0326783,38870.33638829164,768000000.0,39893.240045584724,778000000.0,39893.240045584724,-191999998.661036,-33662.69873774035
39,383999997.92777264,39893.23997382438,768000000.0,40916.143636497145,778000000.0,40916.143636497145,-191999998.60858318,-34548.55922769373
40,383999997.82014215,40916.14355907404,768000000.0,41939.047227409574,778000000.0,41939.047227409574,-191999998.55476794,-35434.41971740195
41,383999997.7097869,41939.04714403335,768000000.0,42961.95081832201,778000000.0,42961.95081832201,-191999998.4995903,-36320.280206858726
42,383999997.59670675,42961.95072869508,768000000.0,43984.854409234445,778000000.0,43984.854409234445,-191999998.44305024,-37206.14069605779
43,383999997.48090184,43984.85431305195,768000000.0,45007.75800014688,778000000.0,45007.75800014688,-191999998.38514778,-38092.00118499284
44,383999997.36237204,45007.75789709671,768000000.0,46030.661591059295,778000000.0,46030.661591059295,-191999998.32588288,-38977.861673657586
45,383999997.2411174,46030.6614808221,768000000.0,47053.56518197172,778000000.0,47053.56518197172,-191999998.26525557,-39863.72216204575
46,383999997.117138,47053.56506422086,768000000.0,48076.468772884145,778000000.0,48076.468772884145,-191999998.20326588,-40749.58265015106
47,383999996.9904338,48076.468647285736,768000000.0,49099.372363796574,778000000.0,49099.372363796574,-191999998.13991377,-41635.443137967195
48,383999996.8610047,49099.37223000946,768000000.0,50122.275954708995,778000000.0,50122.275954708995,-191999998.07519922,-42521.3036254879
49,383999996.72885084,50122.27581238479,768000000.0,51145.17954562143,778000000.0,51145.17954562143,-191999998.00912228,-43407.16411270688
50,383999996.59397215,51145.17939440444,768000000.0,52168.08313653386,778000000.0,52168.08313653386,-191999997.94168293,-44293.02459961784
51,383999996.4563686,52168.08297606119,768000000.0,53190.986727446296,778000000.0,53190.986727446296,-191999997.87288117,-45178.885086214505
52,383999996.3160403,53190.98655734775,768000000.0,54213.89031835873,778000000.0,54213.89031835873,-191999997.802717,-46064.745572490596
53,383999996.1729871,54213.89013825687,768000000.0,55236.79390927116,778000000.0,55236.79390927116,-191999997.7311904,-46950.60605843981
54,383999996.02720916,55236.79371878131,768000000.0,56259.697500183596,778000000.0,56259.697500183596,-191999997.65830144,-47836.46654405585
55,383999995.87870634,56259.69729891379,768000000.0,57282.601091096025,778000000.0,57282.601091096025,-191999997.58405003,-48722.32702933247
56,383999995.7274787,57282.600878647034,768000000.0,58305.50468200845,778000000.0,58305.50468200845,-191999997.5084362,-49608.18751426336
57,383999995.5735262,58305.504457973824,768000000.0,59328.40827292088,778000000.0,59328.40827292088,-191999997.43145996,-50494.04799884222
58,383999995.41684896,59328.408036886896,768000000.0,60351.31186383331,778000000.0,60351.31186383331,-191999997.35312134,-51379.90848306279
59,383999995.2574468,60351.31161537897,768000000.0,61374.21545474575,778000000.0,61374.21545474575,-191999997.27342027,-52265.76896691878
60,383999995.0953199,61374.2151934428,768000000.0,62397.119045658175,778000000.0,62397.119045658175,-191999997.19235682,-53151.62945040389
61,383999994.9304682,62397.11877107112,768000000.0,63420.022636570604,778000000.0,63420.022636570604,-191999997.10993096,-54037.48993351184
62,383999994.7628916,63420.02234825667,768000000.0,64442.926227483025,778000000.0,64442.926227483025,-191999997.02614266,-54923.35041623635
63,383999994.5925902,64442.92592499222,768000000.0,65465.829818395454,778000000.0,65465.829818395454,-191999996.94099197,-55809.21089857113
64,383999994.41956395,65465.82950127047,768000000.0,66488.73340930788,778000000.0,66488.73340930788,-191999996.85447884,-56695.07138050989
65,383999994.243813,66488.73307708418,768000000.0,67511.63700022032,778000000.0,67511.63700022032,-191999996.76660335,-57580.93186204635
66,383999994.0653371,67511.63665242611,768000000.0,68534.54059113274,778000000.0,68534.54059113274,-191999996.67736542,-58466.79234317423
67,383999993.8841364,68534.54022728899,768000000.0,69557.44418204518,778000000.0,69557.44418204518,-191999996.58676505,-59352.65282388723
68,383999993.70021087,69557.44380166553,768000000.0,70580.3477729576,778000000.0,70580.3477729576,-191999996.4948023,-60238.51330417906
69,383999993.5135606,70580.34737554852,768000000.0,71603.25136387003,778000000.0,71603.25136387003,-191999996.40147716,-61124.373784043455
70,383999993.32418543,71603.25094893067,768000000.0,72626.15495478245,778000000.0,72626.15495478245,-191999996.30678958,-62010.23426347412
71,383999993.13208544,72626.15452180474,768000000.0,73649.05854569488,778000000.0,73649.05854569488,-191999996.21073958,-62896.09474246475
72,383999992.9372606,73649.05809416344,768000000.0,74671.96213660731,778000000.0,74671.96213660731,-191999996.11332718,-63781.9552210091
73,383999992.73971105,74671.96166599955,768000000.0,75694.86572751973,778000000.0,75694.86572751973,-191999996.01455238,-64667.81569910085
74,383999992.53943664,75694.86523730581,768000000.0,76717.76931843215,778000000.0,76717.76931843215,-191999995.91441518,-65553.67617673373
75,383999992.33643734,76717.76880807492,768000000.0,77740.67290934458,778000000.0,77740.67290934458,-191999995.81291553,-66439.53665390144
76,383999992.1307133,77740.67237829966,768000000.0,78763.576500257,778000000.0,78763.576500257,-191999995.7100535,-67325.39713059769
77,383999991.92226434,78763.57594797277,768000000.0,79786.48009116943,778000000.0,79786.48009116943,-191999995.60582903,-68211.25760681623
78,383999991.7110906,79786.47951708698,768000000.0,80809.38368208185,778000000.0,80809.38368208185,-191999995.50024217,-69097.11808255073
79,383999991.4971921,80809.38308563503,768000000.0,81832.28727299428,778000000.0,81832.28727299428,-191999995.3932929,-69982.97855779495
80,383999991.2805687,81832.28665360966,768000000.0,82855.1908639067,778000000.0,82855.1908639067,-191999995.28498122,-70868.83903254256
81,383999991.0612205,82855.1902210036,768000000.0,83878.09445481912,778000000.0,83878.09445481912,-191999995.17530712,-71754.69950678729
82,383999990.8391475,83878.09378780963,768000000.0,84900.99804573155,778000000.0,84900.99804573155,-191999995.06427062,-72640.55998052286
83,383999990.61434966,84900.99735402048,768000000.0,85923.90163664398,778000000.0,85923.90163664398,-191999994.9518717,-73526.42045374298
84,383999990.38682705,85923.90091962888,768000000.0,86946.80522755641,778000000.0,86946.80522755641,-191999994.8381104,-74412.28092644138
85,383999990.15657955,86946.80448462756,768000000.0,87969.70881846883,778000000.0,87969.70881846883,-191999994.72298664,-75298.14139861174
86,383999989.92360723,87969.70804900928,768000000.0,88992.61240938125,778000000.0,88992.61240938125,-191999994.60650048,-76184.0018702478
87,383999989.68791014,88992.61161276676,768000000.0,90015.51600029369,778000000.0,90015.51600029369,-191999994.48865193,-77069.86234134327
88,383999989.44948816,90015.51517589278,768000000.0,91038.41959120611,778000000.0,91038.41959120611,-191999994.36944094,-77955.72281189184
89,383999989.2083414,91038.41873838006,768000000.0,92061.32318211855,778000000.0,92061.32318211855,-191999994.24886757,-78841.58328188726
90,383999988.9644698,92061.32230022133,768000000.0,93084.22677303097,778000000.0,93084.22677303097,-191999994.12693176,-79727.44375132324
91,383999988.7178734,93084.22586140934,768000000.0,94107.1303639434,778000000.0,94107.1303639434,-191999994.00363356,-80613.30422019347
92,383999988.4685522,94107.12942193686,768000000.0,95130.03395485584,778000000.0,95130.03395485584,-191999993.87897295,-81499.16468849167
93,383999988.2165061,95130.03298179657,768000000.0,96152.93754576826,778000000.0,96152.93754576826,-191999993.75294992,-82385.02515621159
94,383999987.9617352,96152.93654098129,768000000.0,97175.84113668068,778000000.0,97175.84113668068,-191999993.62556446,-83270.88562334687
95,383999987.7042395,97175.84009948368,768000000.0,98198.74472759312,778000000.0,98198.74472759312,-191999993.4968166,-84156.7460898913
96,383999987.444019,98198.74365729655,768000000.0,99221.64831850555,778000000.0,99221.64831850555,-191999993.36670637,-85042.60655583855
97,383999987.18107367,99221.64721441259,768000000.0,100244.55190941798,778000000.0,100244.55190941798,-191999993.2352337,-85928.46702118237
98,383999986.9154035,100244.55077082459,768000000.0,101267.45550033041,778000000.0,101267.45550033041,-191999993.1023986,-86814.32748591644
99,383999986.6470085,101267.45432652524,768000000.0,102290.35909124285,778000000.0,102290.35909124285,-191999992.9682011,-87700.18795003447
100,383999986.37588865,102290.3578815073,768000000.0,103313.26268215527,778000000.0,103313.26268215527,-191999992.83264118,-88586.04841353018
101,383999986.10204405,103313.26143576353,768000000.0,104336.16627306769,778000000.0,104336.16627306769,-191999992.69571888,-89471.90887639731
102,383999985.8254746,104336.16498928667,768000000.0,105359.0698639801,778000000.0,105359.0698639801,-191999992.55743417,-90357.76933862957
103,383999985.5461803,105359.06854206944,768000000.0,106381.9734548925,778000000.0,106381.9734548925,-191999992.41778702,-91243.62980022065
104,383999985.2641612,106381.97209410463,768000000.0,107404.87704580494,778000000.0,107404.87704580494,-191999992.27677748,-92129.49026116428
105,383999984.97941726,107404.87564538488,768000000.0,108427.78063671736,778000000.0,108427.78063671736,-191999992.1344055,-93015.35072145415
106,383999984.69194853,108427.77919590304,768000000.0,109450.6842276298,778000000.0,109450.6842276298,-191999991.99067113,-93901.21118108401
107,383999984.401755,109450.68274565178,768000000.0,110473.58781854222,778000000.0,110473.58781854222,-191999991.84557435,-94787.07164004755
108,383999984.10883653,110473.58629462392,768000000.0,111496.49140945464,778000000.0,111496.49140945464,-191999991.69911513,-95672.9320983385
109,383999983.8131934,111496.4898428121,768000000.0,112519.39500036706,778000000.0,112519.39500036706,-191999991.55129355,-96558.79255595055
110,383999983.5148253,112519.39339020917,768000000.0,113542.29859127948,778000000.0,113542.29859127948,-191999991.4021095,-97444.65301287746
111,383999983.2137324,113542.29693680776,768000000.0,114565.2021821919,778000000.0,114565.2021821919,-191999991.25156307,-98330.51346911288
112,383999982.9099148,114565.20048260066,768000000.0,115588.10577310433,778000000.0,115588.10577310433,-191999991.09965426,-99216.37392465056
113,383999982.6033723,115588.10402758064,768000000.0,116611.00936401675,778000000.0,116611.00936401675,-191999990.946383,-100102.23437948422
114,383999982.294105,116611.00757174043,768000000.0,117633.91295492917,778000000.0,117633.91295492917,-191999990.79174936,-100988.09483360757
115,383999981.98211277,117633.91111507277,768000000.0,118656.81654584159,778000000.0,118656.81654584159,-191999990.63575324,-101873.95528701431
116,383999981.66739583,118656.81465757037,768000000.0,119679.72013675404,778000000.0,119679.72013675404,-191999990.47839478,-102759.81573969818
117,383999981.34995407,119679.718199226,768000000.0,120702.62372766648,778000000.0,120702.62372766648,-191999990.3196739,-103645.67619165286
118,383999981.0297874,120702.6217400324,768000000.0,121725.52731857891,778000000.0,121725.52731857891,-191999990.15959057,-104531.5366428721
119,383999980.706896,121725.52527998228,768000000.0,122748.43090949133,778000000.0,122748.43090949133,-191999989.99814487,-105417.39709334959
120,383999980.38127977,122748.42881906845,768000000.0,123771.33450040377,778000000.0,123771.33450040377,-191999989.83533674,-106303.25754307903
121,383999980.05293864,123771.3323572836,768000000.0,124794.23809131619,778000000.0,124794.23809131619,-191999989.67116618,-107189.11799205418
122,383999979.72187275,124794.23589462048,768000000.0,125817.14168222861,778000000.0,125817.14168222861,-191999989.50563323,-108074.97844026872
123,383999979.388082,125817.1394310718,768000000.0,126840.04527314106,778000000.0,126840.04527314106,-191999989.33873788,-108960.83888771635
124,383999979.0515665,126840.04296663035,768000000.0,127862.9488640535,778000000.0,127862.9488640535,-191999989.1704801,-109846.69933439083
125,383999978.7123261,127862.9465012889,768000000.0,128885.85245496593,778000000.0,128885.85245496593,-191999989.00085992,-110732.55978028584
126,383999978.370361,128885.85003504012,768000000.0,129908.75604587837,778000000.0,129908.75604587837,-191999988.82987735,-111618.42022539511
127,383999978.0256709,129908.75356787677,768000000.0,130931.65963679079,778000000.0,130931.65963679079,-191999988.6575323,-112504.28066971233
128,383999977.6782561,130931.6570997916,768000000.0,131954.5632277032,778000000.0,131954.5632277032,-191999988.4838249,-113390.14111323125
129,383999977.3281164,131954.56063077739,768000000.0,132977.46681861568,778000000.0,132977.46681861568,-191999988.30875507,-114276.00155594558
130,383999976.9752519,132977.46416082678,768000000.0,134000.37040952808,778000000.0,134000.37040952808,-191999988.13232282,-115161.861997849
131,383999976.61966264,134000.36768993264,768000000.0,135023.2740004405,778000000.0,135023.2740004405,-191999987.95452818,-116047.72243893523
132,383999976.2613485,135023.2712180876,768000000.0,136046.1775913529,778000000.0,136046.1775913529,-191999987.7753711,-116933.58287919802
133,383999975.90030956,136046.1747452845,768000000.0,137069.0811822653,778000000.0,137069.0811822653,-191999987.59485164,-117819.44331863105
134,383999975.5365458,137069.078271516,768000000.0,138091.98477317774,778000000.0,138091.98477317774,-191999987.41296977,-118705.30375722804
135,383999975.17005724,138091.98179677487,768000000.0,139114.88836409015,778000000.0,139114.88836409015,-191999987.22972548,-119591.16419498275
136,383999974.80084383,139114.88532105385,768000000.0,140137.7919550026,778000000.0,140137.7919550026,-191999987.04511878,-120477.02463188881
137,383999974.42890555,140137.7888443457,768000000.0,141160.69554591505,778000000.0,141160.69554591505,-191999986.85914963,-121362.88506793999
138,383999974.05424255,141160.69236664314,768000000.0,142183.59913682748,778000000.0,142183.59913682748,-191999986.67181814,-122248.74550312999
139,383999973.67685467,142183.59588793892,768000000.0,143206.50272773995,778000000.0,143206.50272773995,-191999986.48312423,-123134.60593745254
