Time (days),Moon X Position (m),Moon Y Position (m),Moonlet X Position (m),Moonlet Y Position (m),L5 X Position (m),L5 Y Position (m)
0,384000000.0,0.0,768000000.0,1022.9035909124276,384000000.6432161,0.0
1,383999999.9986376,1022.9035909112177,768000000.0,2045.807181824855,384000000.64185375,1022.9035926246243
2,383999999.99455035,2045.8071818151773,768000000.0,3068.7107727372827,384000000.63776636,2045.8071852419896
3,383999999.9877383,3068.71077270462,768000000.0,4091.6143636497095,384000000.6309544,3068.7107778448385
4,383999999.9782014,4091.614363572287,768000000.0,5114.517954562136,384000000.6214174,4091.614370425912
5,383999999.96593976,5114.517954410921,768000000.0,6137.421545474564,384000000.6091559,5114.517962977953
6,383999999.9509532,6137.421545213263,768000000.0,7160.325136386992,384000000.5941692,6137.4215554937
7,383999999.93324184,7160.325135972053,768000000.0,8183.22872729942,384000000.5764579,7160.325147965898
8,383999999.9128057,8183.228726680036,768000000.0,9206.132318211847,384000000.55602175,8183.228740387288
9,383999999.88964474,9206.13231732995,768000000.0,10229.035909124274,384000000.5328609,9206.13233275061
10,383999999.8637589,10229.03590791454,768000000.0,11251.939500036702,384000000.50697505,10229.035925048607
11,383999999.8351483,11251.939498426545,768000000.0,12274.84309094913,384000000.4783644,11251.939517274019
12,383999999.8038128,12274.84308885871,768000000.0,13297.746681861558,384000000.4470289,12274.843109419586
13,383999999.7697525,13297.746679203772,768000000.0,14320.650272773984,384000000.4129686,13297.746701478054
14,383999999.7329674,14320.65026945447,768000000.0,15343.553863686415,384000000.3761834,14320.650293442159
15,383999999.6934575,15343.553859603557,768000000.0,16366.457454598842,384000000.33667356,15343.553885304655
16,383999999.65122277,16366.457449643765,768000000.0,17389.361045511272,384000000.29443884,16366.45747705827
17,383999999.60626316,17389.361039567837,768000000.0,18412.264636423704,384000000.24947923,17389.361068695747
18,383999999.5585788,18412.26462936852,768000000.0,19435.168227336137,384000000.20179486,18412.264660209836
19,383999999.5081696,19435.168219038544,768000000.0,20458.071818248565,384000000.15138566,19435.16825159327
20,383999999.45503557,20458.07180857067,768000000.0,21480.975409160998,384000000.0982517,20458.071842838803
21,383999999.39917666,21480.97539795762,768000000.0,22503.879000073426,384000000.04239273,21480.975433939155
22,383999999.340593,22503.87898719214,768000000.0,23526.782590985855,383999999.98380905,22503.879024887086
23,383999999.27928454,23526.78257626698,768000000.0,24549.68618189828,383999999.92250067,23526.782615675336
24,383999999.2152512,24549.68616517488,768000000.0,25572.589772810705,383999999.85846734,24549.686206296636
25,383999999.148493,25572.589753908574,768000000.0,26595.493363723137,383999999.791709,25572.58979674373
26,383999999.07901007,26595.49334246081,768000000.0,27618.39695463557,383999999.72222614,26595.493387009366
27,383999999.00680226,27618.39693082432,768000000.0,28641.300545547994,383999999.6500183,27618.396977086282
28,383999998.9318697,28641.30051899186,768000000.0,29664.204136460423,383999999.57508576,28641.300566967227
29,383999998.8542122,29664.204106956164,768000000.0,30687.107727372848,383999999.49742824,29664.20415664493
30,383999998.77383,30687.10769470997,768000000.0,31710.011318285277,383999999.4170461,30687.107746112153
31,383999998.6907229,31710.01128224602,768000000.0,32732.91490919771,383999999.3339389,31710.011335361603
32,383999998.604891,32732.914869557066,768000000.0,33755.81850011013,383999999.2481071,32732.914924386056
33,383999998.5163343,33755.818456635854,768000000.0,34778.72209102256,383999999.15955037,33755.818513178245
34,383999998.4250527,34778.7220434751,768000000.0,35801.62568193499,383999999.0682688,34778.72210173089
35,383999998.33104634,35801.62563006755,768000000.0,36824.529272847416,383999998.97426236,35801.62569003675
36,383999998.23431516,36824.52921640597,768000000.0,37847.43286375985,383999998.87753123,36824.52927808858
37,383999998.13485914,37847.4328024831,768000000.0,38870.33645467229,383999998.7780752,37847.4328658791
38,383999998.0326783,38870.33638829164,768000000.0,39893.240045584724,383999998.6758943,38870.33645340105
39,383999997.92777264,39893.23997382438,768000000.0,40916.143636497145,383999998.5709887,39893.24004064719
40,383999997.82014215,40916.14355907404,768000000.0,41939.047227409574,383999998.4633582,40916.143627610254
41,383999997.7097869,41939.04714403335,768000000.0,42961.95081832201,383999998.353003,41939.04721428298
42,383999997.59670675,42961.95072869508,768000000.0,43984.854409234445,383999998.2399228,42961.95080065811
43,383999997.48090184,43984.85431305195,768000000.0,45007.75800014688,383999998.124118,43984.85438672838
44,383999997.36237204,45007.75789709671,768000000.0,46030.661591059295,383999998.0055881,45007.75797248654
45,383999997.2411174,46030.6614808221,768000000.0,47053.56518197172,383999997.88433343,46030.661557925334
46,383999997.117138,47053.56506422086,768000000.0,48076.468772884145,383999997.7603541,47053.56514303751
47,383999996.9904338,48076.468647285736,768000000.0,49099.372363796574,383999997.63364995,48076.46872781579
48,383999996.8610047,49099.37223000946,768000000.0,50122.275954708995,383999997.5042207,49099.372312252905
49,383999996.72885084,50122.27581238479,768000000.0,51145.17954562143,383999997.3720669,50122.27589634165
50,383999996.59397215,51145.17939440444,768000000.0,52168.08313653386,383999997.2371882,51145.17948007471
51,383999996.4563686,52168.08297606119,768000000.0,53190.986727446296,383999997.0995847,52168.083063444865
52,383999996.3160403,53190.98655734775,768000000.0,54213.89031835873,383999996.95925635,53190.98664644481
53,383999996.1729871,54213.89013825687,768000000.0,55236.79390927116,383999996.8162032,54213.89022906735
54,383999996.02720916,55236.79371878131,768000000.0,56259.697500183596,383999996.6704253,55236.7938113052
55,383999995.87870634,56259.69729891379,768000000.0,57282.601091096025,383999996.52192247,56259.69739315107
56,383999995.7274787,57282.600878647034,768000000.0,58305.50468200845,383999996.37069476,57282.60097459773
57,383999995.5735262,58305.504457973824,768000000.0,59328.40827292088,383999996.2167422,58305.50455563791
58,383999995.41684896,59328.408036886896,768000000.0,60351.31186383331,383999996.0600651,59328.40813626441
59,383999995.2574468,60351.31161537897,768000000.0,61374.21545474575,383999995.9006629,60351.31171646987
60,383999995.0953199,61374.2151934428,768000000.0,62397.119045658175,383999995.73853606,61374.215296247115
61,383999994.9304682,62397.11877107112,768000000.0,63420.022636570604,383999995.57368433,62397.11887558883
62,383999994.7628916,63420.02234825667,768000000.0,64442.926227483025,383999995.40610766,63420.02245448779
63,383999994.5925902,64442.92592499222,768000000.0,65465.829818395454,383999995.2358063,64442.92603293673
64,383999994.41956395,65465.82950127047,768000000.0,66488.73340930788,383999995.06278,65465.8296109284
65,383999994.243813,66488.73307708418,768000000.0,67511.63700022032,383999994.8870291,66488.73318845552
66,383999994.0653371,67511.63665242611,768000000.0,68534.54059113274,383999994.70855325,67511.63676551086
67,383999993.8841364,68534.54022728899,768000000.0,69557.44418204518,383999994.5273524,68534.5403420871
68,383999993.70021087,69557.44380166553,768000000.0,70580.3477729576,383999994.3434269,69557.44391817706
69,383999993.5135606,70580.34737554852,768000000.0,71603.25136387003,383999994.1567767,70580.34749377347
70,383999993.32418543,71603.25094893067,768000000.0,72626.15495478245,383999993.9674015,71603.25106886901
71,383999993.13208544,72626.15452180474,768000000.0,73649.05854569488,383999993.7753015,72626.1546434565
72,383999992.9372606,73649.05809416344,768000000.0,74671.96213660731,383999993.58047664,73649.05821752858
73,383999992.73971105,74671.96166599955,768000000.0,75694.86572751973,383999993.3829271,74671.96179107811
74,383999992.53943664,75694.86523730581,768000000.0,76717.76931843215,383999993.1826527,75694.86536409777
75,383999992.33643734,76717.76880807492,768000000.0,77740.67290934458,383999992.9796534,76717.7689365803
76,383999992.1307133,77740.67237829966,768000000.0,78763.576500257,383999992.77392936,77740.67250851843
77,383999991.92226434,78763.57594797277,768000000.0,79786.48009116943,383999992.56548035,78763.57607990493
78,383999991.7110906,79786.47951708698,768000000.0,80809.38368208185,383999992.35430664,79786.47965073254
79,383999991.4971921,80809.38308563503,768000000.0,81832.28727299428,383999992.1404081,80809.383220994
80,383999991.2805687,81832.28665360966,768000000.0,82855.1908639067,383999991.9237848,81832.28679068203
81,383999991.0612205,82855.1902210036,768000000.0,83878.09445481912,383999991.7044366,82855.1903597894
82,383999990.8391475,83878.09378780963,768000000.0,84900.99804573155,383999991.4823636,83878.09392830884
83,383999990.61434966,84900.99735402048,768000000.0,85923.90163664398,383999991.25756574,84900.99749623307
84,383999990.38682705,85923.90091962888,768000000.0,86946.80522755641,383999991.0300431,85923.90106355488
85,383999990.15657955,86946.80448462756,768000000.0,87969.70881846883,383999990.7997956,86946.80463026695
86,383999989.92360723,87969.70804900928,768000000.0,88992.61240938125,383999990.5668233,87969.70819636207
87,383999989.68791014,88992.61161276676,768000000.0,90015.51600029369,383999990.3311263,88992.611761833
88,383999989.44948816,90015.51517589278,768000000.0,91038.41959120611,383999990.0927042,90015.5153266724
89,383999989.2083414,91038.41873838006,768000000.0,92061.32318211855,383999989.85155755,91038.41889087309
90,383999988.9644698,92061.32230022133,768000000.0,93084.22677303097,383999989.60768586,92061.32245442776
91,383999988.7178734,93084.22586140934,768000000.0,94107.1303639434,383999989.36108947,93084.22601732917
92,383999988.4685522,94107.12942193686,768000000.0,95130.03395485584,383999989.11176825,94107.1295795701
93,383999988.2165061,95130.03298179657,768000000.0,96152.93754576826,383999988.8597222,95130.03314114324
94,383999987.9617352,96152.93654098129,768000000.0,97175.84113668068,383999988.6049512,96152.9367020413
95,383999987.7042395,97175.84009948368,768000000.0,98198.74472759312,383999988.3474555,97175.84026225714
96,383999987.444019,98198.74365729655,768000000.0,99221.64831850555,383999988.0872351,98198.74382178344
97,383999987.18107367,99221.64721441259,768000000.0,100244.55190941798,383999987.82428974,99221.6473806129
98,383999986.9154035,100244.55077082459,768000000.0,101267.45550033041,383999987.55861956,100244.55093873829
99,383999986.6470085,101267.45432652524,768000000.0,102290.35909124285,383999987.29022455,101267.45449615236
100,383999986.37588865,102290.3578815073,768000000.0,103313.26268215527,383999987.01910466,102290.35805284783
101,383999986.10204405,103313.26143576353,768000000.0,104336.16627306769,383999986.7452601,103313.26160881748
102,383999985.8254746,104336.16498928667,768000000.0,105359.0698639801,383999986.46869075,104336.16516405408
103,383999985.5461803,105359.06854206944,768000000.0,106381.9734548925,383999986.1893964,105359.06871855023
104,383999985.2641612,106381.97209410463,768000000.0,107404.87704580494,383999985.90737736,106381.97227229882
105,383999984.97941726,107404.87564538488,768000000.0,108427.78063671736,383999985.62263334,107404.8758252925
106,383999984.69194853,108427.77919590304,768000000.0,109450.6842276298,383999985.3351646,108427.77937752407
107,383999984.401755,109450.68274565178,768000000.0,110473.58781854222,383999985.0449711,109450.68292898625
108,383999984.10883653,110473.58629462392,768000000.0,111496.49140945464,383999984.7520526,110473.58647967178
109,383999983.8131934,111496.4898428121,768000000.0,112519.39500036706,383999984.45640945,111496.49002957338
110,383999983.5148253,112519.39339020917,768000000.0,113542.29859127948,383999984.1580413,112519.39357868383
111,383999983.2137324,113542.29693680776,768000000.0,114565.2021821919,383999983.85694844,113542.29712699585
112,383999982.9099148,114565.20048260066,768000000.0,115588.10577310433,383999983.55313087,114565.20067450218
113,383999982.6033723,115588.10402758064,768000000.0,116611.00936401675,383999983.24658835,115588.1042211956
114,383999982.294105,116611.00757174043,768000000.0,117633.91295492917,383999982.9373211,116611.0077670688
115,383999981.98211277,117633.91111507277,768000000.0,118656.81654584159,383999982.62532884,117633.91131211453
116,383999981.66739583,118656.81465757037,768000000.0,119679.72013675404,383999982.3106119,118656.81485632555
117,383999981.34995407,119679.718199226,768000000.0,120702.62372766648,383999981.9931702,119679.7183996946
118,383999981.0297874,120702.6217400324,768000000.0,121725.52731857891,383999981.67300344,120702.62194221439
119,383999980.706896,121725.52527998228,768000000.0,122748.43090949133,383999981.35011214,121725.52548387773
120,383999980.38127977,122748.42881906845,768000000.0,123771.33450040377,383999981.02449584,122748.42902467729
121,383999980.05293864,123771.3323572836,768000000.0,124794.23809131619,383999980.6961547,123771.33256460585
122,383999979.72187275,124794.23589462048,768000000.0,125817.14168222861,383999980.3650888,124794.23610365612
123,383999979.388082,125817.1394310718,768000000.0,126840.04527314106,383999980.0312981,125817.13964182089
124,383999979.0515665,126840.04296663035,768000000.0,127862.9488640535,383999979.69478256,126840.04317909286
125,383999978.7123261,127862.9465012889,768000000.0,128885.85245496593,383999979.3555422,127862.9467154648
126,383999978.370361,128885.85003504012,768000000.0,129908.75604587837,383999979.0135771,128885.85025092946
127,383999978.0256709,129908.75356787677,768000000.0,130931.65963679079,383999978.6688869,129908.75378547948
128,383999977.6782561,130931.6570997916,768000000.0,131954.5632277032,383999978.32147217,130931.65731910776
129,383999977.3281164,131954.56063077739,768000000.0,132977.46681861568,383999977.9713325,131954.56085180695
130,383999976.9752519,132977.46416082678,768000000.0,134000.37040952808,383999977.6184679,132977.46438356975
131,383999976.61966264,134000.36768993264,768000000.0,135023.2740004405,383999977.2628787,134000.367914389
132,383999976.2613485,135023.2712180876,768000000.0,136046.1775913529,383999976.9045645,135023.2714442574
133,383999975.90030956,136046.1747452845,768000000.0,137069.0811822653,383999976.54352564,136046.1749731677
134,383999975.5365458,137069.078271516,768000000.0,138091.98477317774,383999976.1797619,137069.0785011126
135,383999975.17005724,138091.98179677487,768000000.0,139114.88836409015,383999975.8132733,138091.98202808492
136,383999974.80084383,139114.88532105385,768000000.0,140137.7919550026,383999975.44405997,139114.88555407734
137,383999974.42890555,140137.7888443457,768000000.0,141160.69554591505,383999975.0721216,140137.7890790826
138,383999974.05424255,141160.69236664314,768000000.0,142183.59913682748,383999974.6974586,141160.69260309346
139,383999973.67685467,142183.59588793892,768000000.0,143206.50272773995,383999974.3200708,142183.59612610267
140,383999973.29674196,143206.49940822576,768000000.0,144229.40631865239,383999973.93995804,143206.4996481029
141,383999972.9139044,144229.40292749647,768000000.0,145252.30990956482,383999973.5571205,144229.40316908702
142,383999972.52834207,145252.3064457437,768000000.0,146275.21350047726,383999973.1715581,145252.30668904763
143,383999972.1400549,146275.20996296027,768000000.0,147298.1170913897,383999972.7832709,146275.21020797762
144,383999971.7490429,147298.11347913888,768000000.0,148321.0206823021,383999972.392259,147298.11372586965
145,383999971.35530615,148321.01699427224,768000000.0,149343.9242732145,383999971.9985223,148321.01724271648
146,383999970.9588445,149343.92050835319,768000000.0,150366.82786412694,383999971.60206056,149343.9207585108
147,383999970.55965805,150366.82402137437,768000000.0,151389.73145503932,383999971.20287406,150366.8242732454
148,383999970.15774673,151389.72753332858,768000000.0,152412.63504595176,383999970.8009627,151389.727786913
149,383999969.75311065,152412.63104420854,768000000.0,153435.53863686416,383999970.39632666,152412.6312995064
150,383999969.34574974,153435.534554007,768000000.0,154458.44222777657,383999969.98896575,153435.53481101827
151,383999968.935664,154458.43806271668,768000000.0,155481.345818689,383999969.57888,154458.43832144135
152,383999968.52285343,155481.34157033035,768000000.0,156504.24940960147,383999969.16606945,155481.34183076845
153,383999968.10731804,156504.24507684077,768000000.0,157527.15300051388,383999968.75053406,156504.2453389923
154,383999967.6890578,157527.14858224062,768000000.0,158550.05659142628,383999968.3322738,157527.14884610553
155,383999967.2680728,158550.0520865227,768000000.0,159572.96018233872,383999967.91128874,158550.052352101
156,383999966.844363,159572.95558967968,768000000.0,160595.86377325116,383999967.48757905,159572.95585697147
157,383999966.4179283,160595.85909170436,768000000.0,161618.76736416362,383999967.0611443,160595.85936070955
158,383999965.9887688,161618.7625925895,768000000.0,162641.67095507606,383999966.6319849,161618.76286330813
159,383999965.55688447,162641.6660923278,768000000.0,163664.57454598846,383999966.2001005,162641.66636475982
160,383999965.1222753,163664.56959091203,768000000.0,164687.47813690093,383999965.76549125,163664.56986505742
161,383999964.68494135,164687.47308833487,768000000.0,165710.38172781336,383999965.32815737,164687.4733641937
162,383999964.2448826,165710.37658458916,768000000.0,166733.28531872583,383999964.8880986,165710.37686216139
163,383999963.802099,166733.28007966751,768000000.0,167756.1889096383,383999964.44531506,166733.28035895323
164,383999963.35659057,167756.1835735628,768000000.0,168779.09250055073,383999963.99980664,167756.1838545619
165,383999962.9083573,168779.0870662677,768000000.0,169801.99609146314,383999963.5515734,168779.08734898022
166,383999962.4573992,169801.990557775,768000000.0,170824.89968237554,383999963.1006152,169801.99084220087
167,383999962.00371635,170824.89404807735,768000000.0,171847.803273288,383999962.6469324,170824.89433421663
168,383999961.5473086,171847.79753716753,768000000.0,172870.70686420047,383999962.19052464,171847.79782502024
169,383999961.0881761,172870.70102503832,768000000.0,173893.61045511288,383999961.7313921,172870.70131460446
170,383999960.6263187,173893.60451168244,768000000.0,174916.5140460253,383999961.2695347,173893.60480296199
171,383999960.1617365,174916.50799709262,768000000.0,175939.4176369377,383999960.80495244,174916.50829008556
172,383999959.6944295,175939.41148126163,768000000.0,176962.32122785007,383999960.33764553,175939.411775968
173,383999959.22439766,176962.31496418215,768000000.0,177985.2248187625,383999959.8676137,176962.31526060196
174,383999958.75164104,177985.21844584701,768000000.0,179008.12840967492,383999959.39485705,177985.21874398025
175,383999958.2761596,179008.12192624892,768000000.0,180031.03200058732,383999958.9193756,179008.12222609555
176,383999957.79795325,180031.02540538055,768000000.0,181053.93559149976,383999958.44116926,180031.02570694062
177,383999957.31702214,181053.92888323477,768000000.0,182076.8391824122,383999957.9602381,181053.92918650818
178,383999956.8333662,182076.83235980422,768000000.0,183099.74277332463,383999957.4765822,182076.83266479106
179,383999956.34698546,183099.73583508166,768000000.0,184122.6463642371,383999956.9902015,183099.73614178196
180,383999955.8578799,184122.63930905986,768000000.0,185145.5499551495,383999956.5010959,184122.63961747356
181,383999955.36604947,185145.54278173155,768000000.0,186168.4535460619,383999956.0092654,185145.54309185862
182,383999954.8714943,186168.4462530894,768000000.0,187191.3571369743,383999955.51471037,186168.44656492997
